1.983000000000000000e+04,9.952000000000000000e+03
1.983500000000000000e+04,9.987000000000000000e+03
1.984000000000000000e+04,1.001600000000000000e+04
1.984500000000000000e+04,1.004000000000000000e+04
1.985000000000000000e+04,1.006500000000000000e+04
1.985500000000000000e+04,1.010400000000000000e+04
1.986000000000000000e+04,1.015200000000000000e+04
1.986500000000000000e+04,1.018200000000000000e+04
1.987000000000000000e+04,1.021100000000000000e+04
1.987500000000000000e+04,1.024500000000000000e+04
1.988000000000000000e+04,1.030900000000000000e+04
1.988500000000000000e+04,1.040100000000000000e+04
1.989000000000000000e+04,1.051800000000000000e+04
1.989500000000000000e+04,1.059700000000000000e+04
1.990000000000000000e+04,1.067500000000000000e+04
1.990500000000000000e+04,1.072300000000000000e+04
1.991000000000000000e+04,1.076700000000000000e+04
1.991500000000000000e+04,1.080600000000000000e+04
1.992000000000000000e+04,1.077700000000000000e+04
1.992500000000000000e+04,1.067000000000000000e+04
1.993000000000000000e+04,1.039600000000000000e+04
1.993500000000000000e+04,1.019600000000000000e+04
1.994000000000000000e+04,1.012300000000000000e+04
1.994500000000000000e+04,1.007900000000000000e+04
1.995000000000000000e+04,9.996000000000000000e+03
1.995500000000000000e+04,9.874000000000000000e+03
1.996000000000000000e+04,9.777000000000000000e+03
1.996500000000000000e+04,9.777000000000000000e+03
1.997000000000000000e+04,9.816000000000000000e+03
1.997500000000000000e+04,9.816000000000000000e+03
1.998000000000000000e+04,9.796000000000000000e+03
1.998500000000000000e+04,9.796000000000000000e+03
1.999000000000000000e+04,9.801000000000000000e+03
1.999500000000000000e+04,9.821000000000000000e+03
2.000000000000000000e+04,9.845000000000000000e+03
2.000500000000000000e+04,9.869000000000000000e+03
2.001000000000000000e+04,9.894000000000000000e+03
2.001500000000000000e+04,9.913000000000000000e+03
2.002000000000000000e+04,9.913000000000000000e+03
2.002500000000000000e+04,9.908000000000000000e+03
2.003000000000000000e+04,9.894000000000000000e+03
2.003500000000000000e+04,9.894000000000000000e+03
2.004000000000000000e+04,9.894000000000000000e+03
2.004500000000000000e+04,9.894000000000000000e+03
2.005000000000000000e+04,9.894000000000000000e+03
2.005500000000000000e+04,9.889000000000000000e+03
2.006000000000000000e+04,9.889000000000000000e+03
2.006500000000000000e+04,9.889000000000000000e+03
2.007000000000000000e+04,9.889000000000000000e+03
2.007500000000000000e+04,9.894000000000000000e+03
2.008000000000000000e+04,9.894000000000000000e+03
2.008500000000000000e+04,9.894000000000000000e+03
2.009000000000000000e+04,9.894000000000000000e+03
2.009500000000000000e+04,9.894000000000000000e+03
2.010000000000000000e+04,9.894000000000000000e+03
2.010500000000000000e+04,9.894000000000000000e+03
2.011000000000000000e+04,9.899000000000000000e+03
2.011500000000000000e+04,9.899000000000000000e+03
2.012000000000000000e+04,9.899000000000000000e+03
2.012500000000000000e+04,9.899000000000000000e+03
2.013000000000000000e+04,9.899000000000000000e+03
2.013500000000000000e+04,9.894000000000000000e+03
2.014000000000000000e+04,9.899000000000000000e+03
2.014500000000000000e+04,9.899000000000000000e+03
2.015000000000000000e+04,9.899000000000000000e+03
2.015500000000000000e+04,9.904000000000000000e+03
2.016000000000000000e+04,9.904000000000000000e+03
2.016500000000000000e+04,9.904000000000000000e+03
2.017000000000000000e+04,9.904000000000000000e+03
2.017500000000000000e+04,9.908000000000000000e+03
2.018000000000000000e+04,9.904000000000000000e+03
2.018500000000000000e+04,9.904000000000000000e+03
2.019000000000000000e+04,9.899000000000000000e+03
2.019500000000000000e+04,9.894000000000000000e+03
2.020000000000000000e+04,9.894000000000000000e+03
2.020500000000000000e+04,9.899000000000000000e+03
2.021000000000000000e+04,9.904000000000000000e+03
2.021500000000000000e+04,9.908000000000000000e+03
2.022000000000000000e+04,9.908000000000000000e+03
2.022500000000000000e+04,9.913000000000000000e+03
2.023000000000000000e+04,9.913000000000000000e+03
2.023500000000000000e+04,9.908000000000000000e+03
2.024000000000000000e+04,9.908000000000000000e+03
2.024500000000000000e+04,9.904000000000000000e+03
2.025000000000000000e+04,9.904000000000000000e+03
2.025500000000000000e+04,9.913000000000000000e+03
2.026000000000000000e+04,9.913000000000000000e+03
2.026500000000000000e+04,9.918000000000000000e+03
2.027000000000000000e+04,9.918000000000000000e+03
2.027500000000000000e+04,9.933000000000000000e+03
2.028000000000000000e+04,9.933000000000000000e+03
2.028500000000000000e+04,9.933000000000000000e+03
2.029000000000000000e+04,9.938000000000000000e+03
2.029500000000000000e+04,9.938000000000000000e+03
2.030000000000000000e+04,9.933000000000000000e+03
2.030500000000000000e+04,9.938000000000000000e+03
2.031000000000000000e+04,9.938000000000000000e+03
2.031500000000000000e+04,9.948000000000000000e+03
2.032000000000000000e+04,9.948000000000000000e+03
2.032500000000000000e+04,9.948000000000000000e+03
2.033000000000000000e+04,9.948000000000000000e+03
2.033500000000000000e+04,9.948000000000000000e+03
2.034000000000000000e+04,9.952000000000000000e+03
2.034500000000000000e+04,9.957000000000000000e+03
2.035000000000000000e+04,9.962000000000000000e+03
2.035500000000000000e+04,9.962000000000000000e+03
2.036000000000000000e+04,9.962000000000000000e+03
2.036500000000000000e+04,9.952000000000000000e+03
2.037000000000000000e+04,9.952000000000000000e+03
2.037500000000000000e+04,9.957000000000000000e+03
2.038000000000000000e+04,9.967000000000000000e+03
2.038500000000000000e+04,9.972000000000000000e+03
2.039000000000000000e+04,9.972000000000000000e+03
2.039500000000000000e+04,9.982000000000000000e+03
2.040000000000000000e+04,9.982000000000000000e+03
2.040500000000000000e+04,9.987000000000000000e+03
2.041000000000000000e+04,9.987000000000000000e+03
2.041500000000000000e+04,9.977000000000000000e+03
2.042000000000000000e+04,9.977000000000000000e+03
2.042500000000000000e+04,9.977000000000000000e+03
2.043000000000000000e+04,9.987000000000000000e+03
2.043500000000000000e+04,9.996000000000000000e+03
2.044000000000000000e+04,1.000100000000000000e+04
2.044500000000000000e+04,1.000100000000000000e+04
2.045000000000000000e+04,9.996000000000000000e+03
2.045500000000000000e+04,9.987000000000000000e+03
2.046000000000000000e+04,9.991000000000000000e+03
2.046500000000000000e+04,9.996000000000000000e+03
2.047000000000000000e+04,1.000100000000000000e+04
2.047500000000000000e+04,1.000600000000000000e+04
2.048000000000000000e+04,1.000600000000000000e+04
2.048500000000000000e+04,1.000600000000000000e+04
2.049000000000000000e+04,1.000600000000000000e+04
2.049500000000000000e+04,9.996000000000000000e+03
2.050000000000000000e+04,9.996000000000000000e+03
2.050500000000000000e+04,9.996000000000000000e+03
2.051000000000000000e+04,9.996000000000000000e+03
2.051500000000000000e+04,1.000600000000000000e+04
2.052000000000000000e+04,1.000600000000000000e+04
2.052500000000000000e+04,1.000600000000000000e+04
2.053000000000000000e+04,9.996000000000000000e+03
2.053500000000000000e+04,9.987000000000000000e+03
2.054000000000000000e+04,9.987000000000000000e+03
2.054500000000000000e+04,9.987000000000000000e+03
2.055000000000000000e+04,9.987000000000000000e+03
2.055500000000000000e+04,9.987000000000000000e+03
2.056000000000000000e+04,9.987000000000000000e+03
2.056500000000000000e+04,9.982000000000000000e+03
2.057000000000000000e+04,9.977000000000000000e+03
2.057500000000000000e+04,9.977000000000000000e+03
2.058000000000000000e+04,9.977000000000000000e+03
2.058500000000000000e+04,9.972000000000000000e+03
2.059000000000000000e+04,9.972000000000000000e+03
2.059500000000000000e+04,9.977000000000000000e+03
2.060000000000000000e+04,9.977000000000000000e+03
2.060500000000000000e+04,9.972000000000000000e+03
2.061000000000000000e+04,9.972000000000000000e+03
2.061500000000000000e+04,9.957000000000000000e+03
2.062000000000000000e+04,9.957000000000000000e+03
2.062500000000000000e+04,9.957000000000000000e+03
2.063000000000000000e+04,9.957000000000000000e+03
2.063500000000000000e+04,9.957000000000000000e+03
2.064000000000000000e+04,9.952000000000000000e+03
2.064500000000000000e+04,9.948000000000000000e+03
2.065000000000000000e+04,9.948000000000000000e+03
2.065500000000000000e+04,9.943000000000000000e+03
2.066000000000000000e+04,9.938000000000000000e+03
2.066500000000000000e+04,9.938000000000000000e+03
2.067000000000000000e+04,9.938000000000000000e+03
2.067500000000000000e+04,9.938000000000000000e+03
2.068000000000000000e+04,9.938000000000000000e+03
2.068500000000000000e+04,9.933000000000000000e+03
2.069000000000000000e+04,9.933000000000000000e+03
2.069500000000000000e+04,9.928000000000000000e+03
2.070000000000000000e+04,9.923000000000000000e+03
2.070500000000000000e+04,9.918000000000000000e+03
2.071000000000000000e+04,9.918000000000000000e+03
2.071500000000000000e+04,9.923000000000000000e+03
2.072000000000000000e+04,9.928000000000000000e+03
2.072500000000000000e+04,9.928000000000000000e+03
2.073000000000000000e+04,9.923000000000000000e+03
2.073500000000000000e+04,9.918000000000000000e+03
2.074000000000000000e+04,9.913000000000000000e+03
2.074500000000000000e+04,9.908000000000000000e+03
2.075000000000000000e+04,9.908000000000000000e+03
2.075500000000000000e+04,9.908000000000000000e+03
2.076000000000000000e+04,9.908000000000000000e+03
2.076500000000000000e+04,9.904000000000000000e+03
2.077000000000000000e+04,9.904000000000000000e+03
2.077500000000000000e+04,9.908000000000000000e+03
2.078000000000000000e+04,9.904000000000000000e+03
2.078500000000000000e+04,9.904000000000000000e+03
2.079000000000000000e+04,9.904000000000000000e+03
2.079500000000000000e+04,9.894000000000000000e+03
2.080000000000000000e+04,9.894000000000000000e+03
2.080500000000000000e+04,9.894000000000000000e+03
2.081000000000000000e+04,9.894000000000000000e+03
2.081500000000000000e+04,9.889000000000000000e+03
2.082000000000000000e+04,9.889000000000000000e+03
2.082500000000000000e+04,9.889000000000000000e+03
2.083000000000000000e+04,9.889000000000000000e+03
2.083500000000000000e+04,9.894000000000000000e+03
2.084000000000000000e+04,9.899000000000000000e+03
2.084500000000000000e+04,9.904000000000000000e+03
2.085000000000000000e+04,9.908000000000000000e+03
2.085500000000000000e+04,9.908000000000000000e+03
2.086000000000000000e+04,9.913000000000000000e+03
2.086500000000000000e+04,9.913000000000000000e+03
2.087000000000000000e+04,9.913000000000000000e+03
2.087500000000000000e+04,9.904000000000000000e+03
2.088000000000000000e+04,9.904000000000000000e+03
2.088500000000000000e+04,9.904000000000000000e+03
2.089000000000000000e+04,9.904000000000000000e+03
2.089500000000000000e+04,9.904000000000000000e+03
2.090000000000000000e+04,9.908000000000000000e+03
2.090500000000000000e+04,9.908000000000000000e+03
2.091000000000000000e+04,9.908000000000000000e+03
2.091500000000000000e+04,9.908000000000000000e+03
2.092000000000000000e+04,9.913000000000000000e+03
2.092500000000000000e+04,9.913000000000000000e+03
2.093000000000000000e+04,9.913000000000000000e+03
2.093500000000000000e+04,9.913000000000000000e+03
2.094000000000000000e+04,9.918000000000000000e+03
2.094500000000000000e+04,9.918000000000000000e+03
2.095000000000000000e+04,9.918000000000000000e+03
2.095500000000000000e+04,9.908000000000000000e+03
2.096000000000000000e+04,9.908000000000000000e+03
2.096500000000000000e+04,9.908000000000000000e+03
2.097000000000000000e+04,9.913000000000000000e+03
2.097500000000000000e+04,9.923000000000000000e+03
2.098000000000000000e+04,9.923000000000000000e+03
2.098500000000000000e+04,9.923000000000000000e+03
2.099000000000000000e+04,9.918000000000000000e+03
2.099500000000000000e+04,9.918000000000000000e+03
2.100000000000000000e+04,9.918000000000000000e+03
2.100500000000000000e+04,9.928000000000000000e+03
2.101000000000000000e+04,9.928000000000000000e+03
2.101500000000000000e+04,9.928000000000000000e+03
2.102000000000000000e+04,9.928000000000000000e+03
2.102500000000000000e+04,9.928000000000000000e+03
2.103000000000000000e+04,9.928000000000000000e+03
2.103500000000000000e+04,9.918000000000000000e+03
2.104000000000000000e+04,9.918000000000000000e+03
2.104500000000000000e+04,9.918000000000000000e+03
2.105000000000000000e+04,9.918000000000000000e+03
2.105500000000000000e+04,9.918000000000000000e+03
2.106000000000000000e+04,9.918000000000000000e+03
2.106500000000000000e+04,9.918000000000000000e+03
2.107000000000000000e+04,9.918000000000000000e+03
2.107500000000000000e+04,9.913000000000000000e+03
2.108000000000000000e+04,9.913000000000000000e+03
2.108500000000000000e+04,9.913000000000000000e+03
2.109000000000000000e+04,9.913000000000000000e+03
2.109500000000000000e+04,9.913000000000000000e+03
2.110000000000000000e+04,9.913000000000000000e+03
2.110500000000000000e+04,9.913000000000000000e+03
2.111000000000000000e+04,9.913000000000000000e+03
2.111500000000000000e+04,9.923000000000000000e+03
2.112000000000000000e+04,9.918000000000000000e+03
2.112500000000000000e+04,9.918000000000000000e+03
2.113000000000000000e+04,9.918000000000000000e+03
2.113500000000000000e+04,9.908000000000000000e+03
2.114000000000000000e+04,9.904000000000000000e+03
2.114500000000000000e+04,9.904000000000000000e+03
2.115000000000000000e+04,9.904000000000000000e+03
2.115500000000000000e+04,9.899000000000000000e+03
2.116000000000000000e+04,9.899000000000000000e+03
2.116500000000000000e+04,9.899000000000000000e+03
2.117000000000000000e+04,9.899000000000000000e+03
2.117500000000000000e+04,9.908000000000000000e+03
2.118000000000000000e+04,9.908000000000000000e+03
2.118500000000000000e+04,9.908000000000000000e+03
2.119000000000000000e+04,9.904000000000000000e+03
2.119500000000000000e+04,9.913000000000000000e+03
2.120000000000000000e+04,9.913000000000000000e+03
2.120500000000000000e+04,9.918000000000000000e+03
2.121000000000000000e+04,9.918000000000000000e+03
2.121500000000000000e+04,9.904000000000000000e+03
2.122000000000000000e+04,9.904000000000000000e+03
2.122500000000000000e+04,9.904000000000000000e+03
2.123000000000000000e+04,9.899000000000000000e+03
2.123500000000000000e+04,9.899000000000000000e+03
2.124000000000000000e+04,9.899000000000000000e+03
2.124500000000000000e+04,9.899000000000000000e+03
2.125000000000000000e+04,9.894000000000000000e+03
2.125500000000000000e+04,9.904000000000000000e+03
2.126000000000000000e+04,9.904000000000000000e+03
2.126500000000000000e+04,9.904000000000000000e+03
2.127000000000000000e+04,9.899000000000000000e+03
2.127500000000000000e+04,9.899000000000000000e+03
2.128000000000000000e+04,9.899000000000000000e+03
2.128500000000000000e+04,9.894000000000000000e+03
2.129000000000000000e+04,9.889000000000000000e+03
2.129500000000000000e+04,9.899000000000000000e+03
2.130000000000000000e+04,9.899000000000000000e+03
2.130500000000000000e+04,9.904000000000000000e+03
2.131000000000000000e+04,9.908000000000000000e+03
2.131500000000000000e+04,9.899000000000000000e+03
2.132000000000000000e+04,9.894000000000000000e+03
2.132500000000000000e+04,9.894000000000000000e+03
2.133000000000000000e+04,9.894000000000000000e+03
2.133500000000000000e+04,9.894000000000000000e+03
2.134000000000000000e+04,9.894000000000000000e+03
2.134500000000000000e+04,9.899000000000000000e+03
2.135000000000000000e+04,9.899000000000000000e+03
2.135500000000000000e+04,9.899000000000000000e+03
2.136000000000000000e+04,9.899000000000000000e+03
2.136500000000000000e+04,9.899000000000000000e+03
2.137000000000000000e+04,9.899000000000000000e+03
2.137500000000000000e+04,9.899000000000000000e+03
2.138000000000000000e+04,9.899000000000000000e+03
2.138500000000000000e+04,9.899000000000000000e+03
2.139000000000000000e+04,9.899000000000000000e+03
2.139500000000000000e+04,9.899000000000000000e+03
2.140000000000000000e+04,9.899000000000000000e+03
2.140500000000000000e+04,9.899000000000000000e+03
2.141000000000000000e+04,9.899000000000000000e+03
2.141500000000000000e+04,9.904000000000000000e+03
2.142000000000000000e+04,9.908000000000000000e+03
2.142500000000000000e+04,9.913000000000000000e+03
2.143000000000000000e+04,9.923000000000000000e+03
2.143500000000000000e+04,9.913000000000000000e+03
2.144000000000000000e+04,9.913000000000000000e+03
2.144500000000000000e+04,9.913000000000000000e+03
2.145000000000000000e+04,9.913000000000000000e+03
2.145500000000000000e+04,9.918000000000000000e+03
2.146000000000000000e+04,9.918000000000000000e+03
2.146500000000000000e+04,9.918000000000000000e+03
2.147000000000000000e+04,9.918000000000000000e+03
2.147500000000000000e+04,9.923000000000000000e+03
2.148000000000000000e+04,9.923000000000000000e+03
2.148500000000000000e+04,9.923000000000000000e+03
2.149000000000000000e+04,9.918000000000000000e+03
2.149500000000000000e+04,9.913000000000000000e+03
2.150000000000000000e+04,9.913000000000000000e+03
2.150500000000000000e+04,9.908000000000000000e+03
2.151000000000000000e+04,9.899000000000000000e+03
2.151500000000000000e+04,9.908000000000000000e+03
2.152000000000000000e+04,9.928000000000000000e+03
2.152500000000000000e+04,9.928000000000000000e+03
2.153000000000000000e+04,9.928000000000000000e+03
2.153500000000000000e+04,9.928000000000000000e+03
2.154000000000000000e+04,9.928000000000000000e+03
2.154500000000000000e+04,9.928000000000000000e+03
2.155000000000000000e+04,9.928000000000000000e+03
2.155500000000000000e+04,9.928000000000000000e+03
2.156000000000000000e+04,9.928000000000000000e+03
2.156500000000000000e+04,9.928000000000000000e+03
2.157000000000000000e+04,9.928000000000000000e+03
2.157500000000000000e+04,9.928000000000000000e+03
2.158000000000000000e+04,9.923000000000000000e+03
2.158500000000000000e+04,9.933000000000000000e+03
2.159000000000000000e+04,9.933000000000000000e+03
2.159500000000000000e+04,9.933000000000000000e+03
2.160000000000000000e+04,9.933000000000000000e+03
2.160500000000000000e+04,9.928000000000000000e+03
2.161000000000000000e+04,9.928000000000000000e+03
2.161500000000000000e+04,9.928000000000000000e+03
2.162000000000000000e+04,9.923000000000000000e+03
2.162500000000000000e+04,9.938000000000000000e+03
2.163000000000000000e+04,9.938000000000000000e+03
2.163500000000000000e+04,9.938000000000000000e+03
2.164000000000000000e+04,9.943000000000000000e+03
2.164500000000000000e+04,9.948000000000000000e+03
2.165000000000000000e+04,9.948000000000000000e+03
2.165500000000000000e+04,9.943000000000000000e+03
2.166000000000000000e+04,9.943000000000000000e+03
2.166500000000000000e+04,9.948000000000000000e+03
2.167000000000000000e+04,9.952000000000000000e+03
2.167500000000000000e+04,9.952000000000000000e+03
2.168000000000000000e+04,9.957000000000000000e+03
2.168500000000000000e+04,9.972000000000000000e+03
2.169000000000000000e+04,9.977000000000000000e+03
2.169500000000000000e+04,9.977000000000000000e+03
2.170000000000000000e+04,9.982000000000000000e+03
2.170500000000000000e+04,9.982000000000000000e+03
2.171000000000000000e+04,9.987000000000000000e+03
2.171500000000000000e+04,9.987000000000000000e+03
2.172000000000000000e+04,9.987000000000000000e+03
2.172500000000000000e+04,9.987000000000000000e+03
2.173000000000000000e+04,9.996000000000000000e+03
2.173500000000000000e+04,9.996000000000000000e+03
2.174000000000000000e+04,9.996000000000000000e+03
2.174500000000000000e+04,9.996000000000000000e+03
2.175000000000000000e+04,9.996000000000000000e+03
2.175500000000000000e+04,9.991000000000000000e+03
2.176000000000000000e+04,9.991000000000000000e+03
2.176500000000000000e+04,9.982000000000000000e+03
2.177000000000000000e+04,9.991000000000000000e+03
2.177500000000000000e+04,9.991000000000000000e+03
2.178000000000000000e+04,9.991000000000000000e+03
2.178500000000000000e+04,1.000100000000000000e+04
2.179000000000000000e+04,9.991000000000000000e+03
2.179500000000000000e+04,9.991000000000000000e+03
2.180000000000000000e+04,9.991000000000000000e+03
2.180500000000000000e+04,9.987000000000000000e+03
2.181000000000000000e+04,9.987000000000000000e+03
2.181500000000000000e+04,9.982000000000000000e+03
2.182000000000000000e+04,9.982000000000000000e+03
2.182500000000000000e+04,9.972000000000000000e+03
2.183000000000000000e+04,9.967000000000000000e+03
2.183500000000000000e+04,9.962000000000000000e+03
2.184000000000000000e+04,9.952000000000000000e+03
2.184500000000000000e+04,9.952000000000000000e+03
2.185000000000000000e+04,9.943000000000000000e+03
2.185500000000000000e+04,9.943000000000000000e+03
2.186000000000000000e+04,9.933000000000000000e+03
2.186500000000000000e+04,9.913000000000000000e+03
2.187000000000000000e+04,9.913000000000000000e+03
2.187500000000000000e+04,9.913000000000000000e+03
2.188000000000000000e+04,9.908000000000000000e+03
2.188500000000000000e+04,9.908000000000000000e+03
2.189000000000000000e+04,9.904000000000000000e+03
2.189500000000000000e+04,9.904000000000000000e+03
2.190000000000000000e+04,9.904000000000000000e+03
2.190500000000000000e+04,9.904000000000000000e+03
2.191000000000000000e+04,9.904000000000000000e+03
2.191500000000000000e+04,9.904000000000000000e+03
2.192000000000000000e+04,9.904000000000000000e+03
2.192500000000000000e+04,9.904000000000000000e+03
2.193000000000000000e+04,9.908000000000000000e+03
2.193500000000000000e+04,9.908000000000000000e+03
2.194000000000000000e+04,9.908000000000000000e+03
2.194500000000000000e+04,9.908000000000000000e+03
2.195000000000000000e+04,9.904000000000000000e+03
2.195500000000000000e+04,9.913000000000000000e+03
2.196000000000000000e+04,9.923000000000000000e+03
2.196500000000000000e+04,9.943000000000000000e+03
2.197000000000000000e+04,9.977000000000000000e+03
2.197500000000000000e+04,1.000600000000000000e+04
2.198000000000000000e+04,1.004000000000000000e+04
2.198500000000000000e+04,1.007400000000000000e+04
2.199000000000000000e+04,1.011300000000000000e+04
2.199500000000000000e+04,1.014300000000000000e+04
2.200000000000000000e+04,1.015200000000000000e+04
2.200500000000000000e+04,1.019200000000000000e+04
2.201000000000000000e+04,1.024500000000000000e+04
2.201500000000000000e+04,1.030900000000000000e+04
2.202000000000000000e+04,1.040100000000000000e+04
2.202500000000000000e+04,1.049900000000000000e+04
2.203000000000000000e+04,1.059700000000000000e+04
2.203500000000000000e+04,1.067500000000000000e+04
2.204000000000000000e+04,1.072300000000000000e+04
2.204500000000000000e+04,1.075800000000000000e+04
2.205000000000000000e+04,1.076700000000000000e+04
2.205500000000000000e+04,1.072800000000000000e+04
2.206000000000000000e+04,1.059200000000000000e+04
2.206500000000000000e+04,1.033800000000000000e+04
2.207000000000000000e+04,1.014800000000000000e+04
2.207500000000000000e+04,1.006500000000000000e+04
2.208000000000000000e+04,1.002100000000000000e+04
2.208500000000000000e+04,9.957000000000000000e+03
2.209000000000000000e+04,9.845000000000000000e+03
2.209500000000000000e+04,9.767000000000000000e+03
2.210000000000000000e+04,9.767000000000000000e+03
2.210500000000000000e+04,9.786000000000000000e+03
2.211000000000000000e+04,9.777000000000000000e+03
2.211500000000000000e+04,9.767000000000000000e+03
2.212000000000000000e+04,9.747000000000000000e+03
2.212500000000000000e+04,9.762000000000000000e+03
2.213000000000000000e+04,9.772000000000000000e+03
2.213500000000000000e+04,9.806000000000000000e+03
2.214000000000000000e+04,9.840000000000000000e+03
2.214500000000000000e+04,9.855000000000000000e+03
2.215000000000000000e+04,9.845000000000000000e+03
2.215500000000000000e+04,9.845000000000000000e+03
2.216000000000000000e+04,9.840000000000000000e+03
2.216500000000000000e+04,9.835000000000000000e+03
2.217000000000000000e+04,9.835000000000000000e+03
2.217500000000000000e+04,9.835000000000000000e+03
2.218000000000000000e+04,9.835000000000000000e+03
2.218500000000000000e+04,9.835000000000000000e+03
2.219000000000000000e+04,9.830000000000000000e+03
2.219500000000000000e+04,9.830000000000000000e+03
2.220000000000000000e+04,9.830000000000000000e+03
2.220500000000000000e+04,9.830000000000000000e+03
2.221000000000000000e+04,9.816000000000000000e+03
2.221500000000000000e+04,9.816000000000000000e+03
2.222000000000000000e+04,9.816000000000000000e+03
2.222500000000000000e+04,9.816000000000000000e+03
2.223000000000000000e+04,9.816000000000000000e+03
2.223500000000000000e+04,9.816000000000000000e+03
2.224000000000000000e+04,9.816000000000000000e+03
2.224500000000000000e+04,9.821000000000000000e+03
2.225000000000000000e+04,9.806000000000000000e+03
2.225500000000000000e+04,9.801000000000000000e+03
2.226000000000000000e+04,9.796000000000000000e+03
2.226500000000000000e+04,9.791000000000000000e+03
2.227000000000000000e+04,9.796000000000000000e+03
2.227500000000000000e+04,9.801000000000000000e+03
2.228000000000000000e+04,9.801000000000000000e+03
2.228500000000000000e+04,9.801000000000000000e+03
2.229000000000000000e+04,9.806000000000000000e+03
2.229500000000000000e+04,9.806000000000000000e+03
2.230000000000000000e+04,9.806000000000000000e+03
2.230500000000000000e+04,9.806000000000000000e+03
2.231000000000000000e+04,9.801000000000000000e+03
2.231500000000000000e+04,9.796000000000000000e+03
2.232000000000000000e+04,9.796000000000000000e+03
2.232500000000000000e+04,9.791000000000000000e+03
2.233000000000000000e+04,9.782000000000000000e+03
2.233500000000000000e+04,9.777000000000000000e+03
2.234000000000000000e+04,9.777000000000000000e+03
2.234500000000000000e+04,9.777000000000000000e+03
2.235000000000000000e+04,9.772000000000000000e+03
2.235500000000000000e+04,9.772000000000000000e+03
2.236000000000000000e+04,9.777000000000000000e+03
2.236500000000000000e+04,9.777000000000000000e+03
2.237000000000000000e+04,9.777000000000000000e+03
2.237500000000000000e+04,9.782000000000000000e+03
2.238000000000000000e+04,9.782000000000000000e+03
2.238500000000000000e+04,9.786000000000000000e+03
2.239000000000000000e+04,9.796000000000000000e+03
2.239500000000000000e+04,9.796000000000000000e+03
2.240000000000000000e+04,9.801000000000000000e+03
2.240500000000000000e+04,9.801000000000000000e+03
2.241000000000000000e+04,9.801000000000000000e+03
2.241500000000000000e+04,9.796000000000000000e+03
2.242000000000000000e+04,9.791000000000000000e+03
2.242500000000000000e+04,9.791000000000000000e+03
2.243000000000000000e+04,9.796000000000000000e+03
2.243500000000000000e+04,9.796000000000000000e+03
2.244000000000000000e+04,9.806000000000000000e+03
2.244500000000000000e+04,9.811000000000000000e+03
2.245000000000000000e+04,9.806000000000000000e+03
2.245500000000000000e+04,9.801000000000000000e+03
2.246000000000000000e+04,9.796000000000000000e+03
2.246500000000000000e+04,9.791000000000000000e+03
2.247000000000000000e+04,9.796000000000000000e+03
2.247500000000000000e+04,9.806000000000000000e+03
2.248000000000000000e+04,9.816000000000000000e+03
2.248500000000000000e+04,9.826000000000000000e+03
2.249000000000000000e+04,9.816000000000000000e+03
2.249500000000000000e+04,9.816000000000000000e+03
2.250000000000000000e+04,9.806000000000000000e+03
2.250500000000000000e+04,9.806000000000000000e+03
2.251000000000000000e+04,9.811000000000000000e+03
2.251500000000000000e+04,9.821000000000000000e+03
2.252000000000000000e+04,9.826000000000000000e+03
2.252500000000000000e+04,9.826000000000000000e+03
2.253000000000000000e+04,9.826000000000000000e+03
2.253500000000000000e+04,9.826000000000000000e+03
2.254000000000000000e+04,9.830000000000000000e+03
2.254500000000000000e+04,9.830000000000000000e+03
2.255000000000000000e+04,9.830000000000000000e+03
2.255500000000000000e+04,9.830000000000000000e+03
2.256000000000000000e+04,9.830000000000000000e+03
2.256500000000000000e+04,9.840000000000000000e+03
2.257000000000000000e+04,9.850000000000000000e+03
2.257500000000000000e+04,9.855000000000000000e+03
2.258000000000000000e+04,9.855000000000000000e+03
2.258500000000000000e+04,9.850000000000000000e+03
2.259000000000000000e+04,9.850000000000000000e+03
2.259500000000000000e+04,9.855000000000000000e+03
2.260000000000000000e+04,9.860000000000000000e+03
2.260500000000000000e+04,9.865000000000000000e+03
2.261000000000000000e+04,9.869000000000000000e+03
2.261500000000000000e+04,9.869000000000000000e+03
2.262000000000000000e+04,9.869000000000000000e+03
2.262500000000000000e+04,9.869000000000000000e+03
2.263000000000000000e+04,9.869000000000000000e+03
2.263500000000000000e+04,9.869000000000000000e+03
2.264000000000000000e+04,9.869000000000000000e+03
2.264500000000000000e+04,9.869000000000000000e+03
2.265000000000000000e+04,9.860000000000000000e+03
2.265500000000000000e+04,9.860000000000000000e+03
2.266000000000000000e+04,9.860000000000000000e+03
2.266500000000000000e+04,9.850000000000000000e+03
2.267000000000000000e+04,9.850000000000000000e+03
2.267500000000000000e+04,9.850000000000000000e+03
2.268000000000000000e+04,9.850000000000000000e+03
2.268500000000000000e+04,9.850000000000000000e+03
2.269000000000000000e+04,9.860000000000000000e+03
2.269500000000000000e+04,9.860000000000000000e+03
2.270000000000000000e+04,9.855000000000000000e+03
2.270500000000000000e+04,9.850000000000000000e+03
2.271000000000000000e+04,9.860000000000000000e+03
2.271500000000000000e+04,9.860000000000000000e+03
2.272000000000000000e+04,9.855000000000000000e+03
2.272500000000000000e+04,9.855000000000000000e+03
2.273000000000000000e+04,9.850000000000000000e+03
2.273500000000000000e+04,9.850000000000000000e+03
2.274000000000000000e+04,9.845000000000000000e+03
2.274500000000000000e+04,9.845000000000000000e+03
2.275000000000000000e+04,9.840000000000000000e+03
2.275500000000000000e+04,9.840000000000000000e+03
2.276000000000000000e+04,9.840000000000000000e+03
2.276500000000000000e+04,9.840000000000000000e+03
2.277000000000000000e+04,9.850000000000000000e+03
2.277500000000000000e+04,9.845000000000000000e+03
2.278000000000000000e+04,9.840000000000000000e+03
2.278500000000000000e+04,9.840000000000000000e+03
2.279000000000000000e+04,9.835000000000000000e+03
2.279500000000000000e+04,9.830000000000000000e+03
2.280000000000000000e+04,9.830000000000000000e+03
2.280500000000000000e+04,9.830000000000000000e+03
2.281000000000000000e+04,9.835000000000000000e+03
2.281500000000000000e+04,9.840000000000000000e+03
2.282000000000000000e+04,9.840000000000000000e+03
2.282500000000000000e+04,9.845000000000000000e+03
2.283000000000000000e+04,9.830000000000000000e+03
2.283500000000000000e+04,9.826000000000000000e+03
2.284000000000000000e+04,9.821000000000000000e+03
2.284500000000000000e+04,9.821000000000000000e+03
2.285000000000000000e+04,9.816000000000000000e+03
2.285500000000000000e+04,9.821000000000000000e+03
2.286000000000000000e+04,9.821000000000000000e+03
2.286500000000000000e+04,9.816000000000000000e+03
2.287000000000000000e+04,9.821000000000000000e+03
2.287500000000000000e+04,9.816000000000000000e+03
2.288000000000000000e+04,9.811000000000000000e+03
2.288500000000000000e+04,9.811000000000000000e+03
2.289000000000000000e+04,9.811000000000000000e+03
2.289500000000000000e+04,9.811000000000000000e+03
2.290000000000000000e+04,9.806000000000000000e+03
2.290500000000000000e+04,9.806000000000000000e+03
2.291000000000000000e+04,9.811000000000000000e+03
2.291500000000000000e+04,9.806000000000000000e+03
2.292000000000000000e+04,9.806000000000000000e+03
2.292500000000000000e+04,9.806000000000000000e+03
2.293000000000000000e+04,9.816000000000000000e+03
2.293500000000000000e+04,9.816000000000000000e+03
2.294000000000000000e+04,9.816000000000000000e+03
2.294500000000000000e+04,9.816000000000000000e+03
2.295000000000000000e+04,9.811000000000000000e+03
2.295500000000000000e+04,9.811000000000000000e+03
2.296000000000000000e+04,9.811000000000000000e+03
2.296500000000000000e+04,9.811000000000000000e+03
2.297000000000000000e+04,9.801000000000000000e+03
2.297500000000000000e+04,9.801000000000000000e+03
2.298000000000000000e+04,9.801000000000000000e+03
2.298500000000000000e+04,9.801000000000000000e+03
2.299000000000000000e+04,9.791000000000000000e+03
2.299500000000000000e+04,9.796000000000000000e+03
2.300000000000000000e+04,9.796000000000000000e+03
2.300500000000000000e+04,9.796000000000000000e+03
2.301000000000000000e+04,9.806000000000000000e+03
2.301500000000000000e+04,9.806000000000000000e+03
2.302000000000000000e+04,9.806000000000000000e+03
2.302500000000000000e+04,9.806000000000000000e+03
2.303000000000000000e+04,9.796000000000000000e+03
2.303500000000000000e+04,9.801000000000000000e+03
2.304000000000000000e+04,9.801000000000000000e+03
2.304500000000000000e+04,9.801000000000000000e+03
2.305000000000000000e+04,9.811000000000000000e+03
2.305500000000000000e+04,9.816000000000000000e+03
2.306000000000000000e+04,9.816000000000000000e+03
2.306500000000000000e+04,9.816000000000000000e+03
2.307000000000000000e+04,9.826000000000000000e+03
2.307500000000000000e+04,9.830000000000000000e+03
2.308000000000000000e+04,9.830000000000000000e+03
2.308500000000000000e+04,9.830000000000000000e+03
2.309000000000000000e+04,9.830000000000000000e+03
2.309500000000000000e+04,9.830000000000000000e+03
2.310000000000000000e+04,9.830000000000000000e+03
2.310500000000000000e+04,9.835000000000000000e+03
2.311000000000000000e+04,9.835000000000000000e+03
2.311500000000000000e+04,9.835000000000000000e+03
2.312000000000000000e+04,9.835000000000000000e+03
2.312500000000000000e+04,9.830000000000000000e+03
2.313000000000000000e+04,9.840000000000000000e+03
2.313500000000000000e+04,9.840000000000000000e+03
2.314000000000000000e+04,9.850000000000000000e+03
2.314500000000000000e+04,9.850000000000000000e+03
2.315000000000000000e+04,9.845000000000000000e+03
2.315500000000000000e+04,9.840000000000000000e+03
2.316000000000000000e+04,9.835000000000000000e+03
2.316500000000000000e+04,9.830000000000000000e+03
2.317000000000000000e+04,9.840000000000000000e+03
2.317500000000000000e+04,9.840000000000000000e+03
2.318000000000000000e+04,9.840000000000000000e+03
2.318500000000000000e+04,9.840000000000000000e+03
2.319000000000000000e+04,9.830000000000000000e+03
2.319500000000000000e+04,9.830000000000000000e+03
2.320000000000000000e+04,9.830000000000000000e+03
2.320500000000000000e+04,9.830000000000000000e+03
2.321000000000000000e+04,9.826000000000000000e+03
2.321500000000000000e+04,9.826000000000000000e+03
2.322000000000000000e+04,9.826000000000000000e+03
2.322500000000000000e+04,9.826000000000000000e+03
2.323000000000000000e+04,9.816000000000000000e+03
2.323500000000000000e+04,9.816000000000000000e+03
2.324000000000000000e+04,9.816000000000000000e+03
2.324500000000000000e+04,9.816000000000000000e+03
2.325000000000000000e+04,9.816000000000000000e+03
2.325500000000000000e+04,9.811000000000000000e+03
2.326000000000000000e+04,9.811000000000000000e+03
2.326500000000000000e+04,9.811000000000000000e+03
2.327000000000000000e+04,9.821000000000000000e+03
2.327500000000000000e+04,9.816000000000000000e+03
2.328000000000000000e+04,9.816000000000000000e+03
2.328500000000000000e+04,9.816000000000000000e+03
2.329000000000000000e+04,9.811000000000000000e+03
2.329500000000000000e+04,9.811000000000000000e+03
2.330000000000000000e+04,9.811000000000000000e+03
2.330500000000000000e+04,9.811000000000000000e+03
2.331000000000000000e+04,9.801000000000000000e+03
2.331500000000000000e+04,9.801000000000000000e+03
2.332000000000000000e+04,9.801000000000000000e+03
2.332500000000000000e+04,9.796000000000000000e+03
2.333000000000000000e+04,9.796000000000000000e+03
2.333500000000000000e+04,9.796000000000000000e+03
2.334000000000000000e+04,9.801000000000000000e+03
2.334500000000000000e+04,9.801000000000000000e+03
2.335000000000000000e+04,9.796000000000000000e+03
2.335500000000000000e+04,9.796000000000000000e+03
2.336000000000000000e+04,9.796000000000000000e+03
2.336500000000000000e+04,9.791000000000000000e+03
2.337000000000000000e+04,9.791000000000000000e+03
2.337500000000000000e+04,9.791000000000000000e+03
2.338000000000000000e+04,9.791000000000000000e+03
2.338500000000000000e+04,9.786000000000000000e+03
2.339000000000000000e+04,9.796000000000000000e+03
2.339500000000000000e+04,9.796000000000000000e+03
2.340000000000000000e+04,9.796000000000000000e+03
2.340500000000000000e+04,9.791000000000000000e+03
2.341000000000000000e+04,9.791000000000000000e+03
2.341500000000000000e+04,9.791000000000000000e+03
2.342000000000000000e+04,9.786000000000000000e+03
2.342500000000000000e+04,9.782000000000000000e+03
2.343000000000000000e+04,9.786000000000000000e+03
2.343500000000000000e+04,9.782000000000000000e+03
2.344000000000000000e+04,9.782000000000000000e+03
2.344500000000000000e+04,9.782000000000000000e+03
2.345000000000000000e+04,9.782000000000000000e+03
2.345500000000000000e+04,9.777000000000000000e+03
2.346000000000000000e+04,9.777000000000000000e+03
2.346500000000000000e+04,9.777000000000000000e+03
2.347000000000000000e+04,9.777000000000000000e+03
2.347500000000000000e+04,9.777000000000000000e+03
2.348000000000000000e+04,9.782000000000000000e+03
2.348500000000000000e+04,9.782000000000000000e+03
2.349000000000000000e+04,9.782000000000000000e+03
2.349500000000000000e+04,9.782000000000000000e+03
2.350000000000000000e+04,9.782000000000000000e+03
2.350500000000000000e+04,9.782000000000000000e+03
2.351000000000000000e+04,9.772000000000000000e+03
2.351500000000000000e+04,9.772000000000000000e+03
2.352000000000000000e+04,9.772000000000000000e+03
2.352500000000000000e+04,9.772000000000000000e+03
2.353000000000000000e+04,9.772000000000000000e+03
2.353500000000000000e+04,9.772000000000000000e+03
2.354000000000000000e+04,9.772000000000000000e+03
2.354500000000000000e+04,9.772000000000000000e+03
2.355000000000000000e+04,9.772000000000000000e+03
2.355500000000000000e+04,9.772000000000000000e+03
2.356000000000000000e+04,9.772000000000000000e+03
2.356500000000000000e+04,9.777000000000000000e+03
2.357000000000000000e+04,9.767000000000000000e+03
2.357500000000000000e+04,9.767000000000000000e+03
2.358000000000000000e+04,9.767000000000000000e+03
2.358500000000000000e+04,9.767000000000000000e+03
2.359000000000000000e+04,9.762000000000000000e+03
2.359500000000000000e+04,9.762000000000000000e+03
2.360000000000000000e+04,9.762000000000000000e+03
2.360500000000000000e+04,9.762000000000000000e+03
2.361000000000000000e+04,9.767000000000000000e+03
2.361500000000000000e+04,9.767000000000000000e+03
2.362000000000000000e+04,9.767000000000000000e+03
2.362500000000000000e+04,9.762000000000000000e+03
2.363000000000000000e+04,9.752000000000000000e+03
2.363500000000000000e+04,9.762000000000000000e+03
2.364000000000000000e+04,9.762000000000000000e+03
2.364500000000000000e+04,9.762000000000000000e+03
2.365000000000000000e+04,9.762000000000000000e+03
2.365500000000000000e+04,9.762000000000000000e+03
2.366000000000000000e+04,9.762000000000000000e+03
2.366500000000000000e+04,9.762000000000000000e+03
2.367000000000000000e+04,9.762000000000000000e+03
2.367500000000000000e+04,9.762000000000000000e+03
2.368000000000000000e+04,9.752000000000000000e+03
2.368500000000000000e+04,9.752000000000000000e+03
2.369000000000000000e+04,9.752000000000000000e+03
2.369500000000000000e+04,9.747000000000000000e+03
2.370000000000000000e+04,9.738000000000000000e+03
2.370500000000000000e+04,9.738000000000000000e+03
2.371000000000000000e+04,9.738000000000000000e+03
2.371500000000000000e+04,9.738000000000000000e+03
2.372000000000000000e+04,9.747000000000000000e+03
2.372500000000000000e+04,9.752000000000000000e+03
2.373000000000000000e+04,9.757000000000000000e+03
2.373500000000000000e+04,9.757000000000000000e+03
2.374000000000000000e+04,9.762000000000000000e+03
2.374500000000000000e+04,9.762000000000000000e+03
2.375000000000000000e+04,9.762000000000000000e+03
2.375500000000000000e+04,9.767000000000000000e+03
2.376000000000000000e+04,9.772000000000000000e+03
2.376500000000000000e+04,9.772000000000000000e+03
2.377000000000000000e+04,9.767000000000000000e+03
2.377500000000000000e+04,9.767000000000000000e+03
2.378000000000000000e+04,9.762000000000000000e+03
2.378500000000000000e+04,9.767000000000000000e+03
2.379000000000000000e+04,9.767000000000000000e+03
2.379500000000000000e+04,9.772000000000000000e+03
2.380000000000000000e+04,9.777000000000000000e+03
2.380500000000000000e+04,9.782000000000000000e+03
2.381000000000000000e+04,9.782000000000000000e+03
2.381500000000000000e+04,9.786000000000000000e+03
2.382000000000000000e+04,9.796000000000000000e+03
2.382500000000000000e+04,9.801000000000000000e+03
2.383000000000000000e+04,9.801000000000000000e+03
2.383500000000000000e+04,9.801000000000000000e+03
2.384000000000000000e+04,9.791000000000000000e+03
2.384500000000000000e+04,9.801000000000000000e+03
2.385000000000000000e+04,9.801000000000000000e+03
2.385500000000000000e+04,9.801000000000000000e+03
2.386000000000000000e+04,9.811000000000000000e+03
2.386500000000000000e+04,9.811000000000000000e+03
2.387000000000000000e+04,9.806000000000000000e+03
2.387500000000000000e+04,9.806000000000000000e+03
2.388000000000000000e+04,9.816000000000000000e+03
2.388500000000000000e+04,9.826000000000000000e+03
2.389000000000000000e+04,9.826000000000000000e+03
2.389500000000000000e+04,9.826000000000000000e+03
2.390000000000000000e+04,9.821000000000000000e+03
2.390500000000000000e+04,9.806000000000000000e+03
2.391000000000000000e+04,9.801000000000000000e+03
2.391500000000000000e+04,9.796000000000000000e+03
2.392000000000000000e+04,9.791000000000000000e+03
2.392500000000000000e+04,9.791000000000000000e+03
2.393000000000000000e+04,9.786000000000000000e+03
2.393500000000000000e+04,9.786000000000000000e+03
2.394000000000000000e+04,9.786000000000000000e+03
2.394500000000000000e+04,9.782000000000000000e+03
2.395000000000000000e+04,9.777000000000000000e+03
2.395500000000000000e+04,9.767000000000000000e+03
2.396000000000000000e+04,9.747000000000000000e+03
2.396500000000000000e+04,9.738000000000000000e+03
2.397000000000000000e+04,9.738000000000000000e+03
2.397500000000000000e+04,9.728000000000000000e+03
2.398000000000000000e+04,9.723000000000000000e+03
2.398500000000000000e+04,9.728000000000000000e+03
2.399000000000000000e+04,9.733000000000000000e+03
2.399500000000000000e+04,9.733000000000000000e+03
2.400000000000000000e+04,9.718000000000000000e+03
2.400500000000000000e+04,9.708000000000000000e+03
2.401000000000000000e+04,9.704000000000000000e+03
2.401500000000000000e+04,9.699000000000000000e+03
2.402000000000000000e+04,9.704000000000000000e+03
2.402500000000000000e+04,9.708000000000000000e+03
2.403000000000000000e+04,9.713000000000000000e+03
2.403500000000000000e+04,9.718000000000000000e+03
2.404000000000000000e+04,9.728000000000000000e+03
2.404500000000000000e+04,9.733000000000000000e+03
2.405000000000000000e+04,9.733000000000000000e+03
2.405500000000000000e+04,9.733000000000000000e+03
2.406000000000000000e+04,9.743000000000000000e+03
2.406500000000000000e+04,9.747000000000000000e+03
2.407000000000000000e+04,9.777000000000000000e+03
2.407500000000000000e+04,9.796000000000000000e+03
2.408000000000000000e+04,9.835000000000000000e+03
2.408500000000000000e+04,9.860000000000000000e+03
2.409000000000000000e+04,9.899000000000000000e+03
2.409500000000000000e+04,9.933000000000000000e+03
2.410000000000000000e+04,9.957000000000000000e+03
2.410500000000000000e+04,9.977000000000000000e+03
2.411000000000000000e+04,1.002600000000000000e+04
2.411500000000000000e+04,1.010400000000000000e+04
2.412000000000000000e+04,1.020100000000000000e+04
2.412500000000000000e+04,1.032300000000000000e+04
2.413000000000000000e+04,1.046500000000000000e+04
2.413500000000000000e+04,1.060600000000000000e+04
2.414000000000000000e+04,1.071400000000000000e+04
2.414500000000000000e+04,1.078200000000000000e+04
2.415000000000000000e+04,1.084100000000000000e+04
2.415500000000000000e+04,1.087000000000000000e+04
2.416000000000000000e+04,1.083600000000000000e+04
2.416500000000000000e+04,1.073800000000000000e+04
2.417000000000000000e+04,1.047500000000000000e+04
2.417500000000000000e+04,1.026000000000000000e+04
2.418000000000000000e+04,1.015200000000000000e+04
2.418500000000000000e+04,1.009900000000000000e+04
2.419000000000000000e+04,1.000600000000000000e+04
2.419500000000000000e+04,9.865000000000000000e+03
2.420000000000000000e+04,9.752000000000000000e+03
2.420500000000000000e+04,9.718000000000000000e+03
2.421000000000000000e+04,9.718000000000000000e+03
2.421500000000000000e+04,9.699000000000000000e+03
2.422000000000000000e+04,9.669000000000000000e+03
2.422500000000000000e+04,9.650000000000000000e+03
2.423000000000000000e+04,9.660000000000000000e+03
2.423500000000000000e+04,9.669000000000000000e+03
2.424000000000000000e+04,9.694000000000000000e+03
2.424500000000000000e+04,9.723000000000000000e+03
2.425000000000000000e+04,9.738000000000000000e+03
2.425500000000000000e+04,9.772000000000000000e+03
2.426000000000000000e+04,9.786000000000000000e+03
2.426500000000000000e+04,9.786000000000000000e+03
2.427000000000000000e+04,9.786000000000000000e+03
2.427500000000000000e+04,9.782000000000000000e+03
2.428000000000000000e+04,9.786000000000000000e+03
2.428500000000000000e+04,9.777000000000000000e+03
2.429000000000000000e+04,9.777000000000000000e+03
2.429500000000000000e+04,9.777000000000000000e+03
2.430000000000000000e+04,9.777000000000000000e+03
2.430500000000000000e+04,9.772000000000000000e+03
2.431000000000000000e+04,9.772000000000000000e+03
2.431500000000000000e+04,9.772000000000000000e+03
2.432000000000000000e+04,9.772000000000000000e+03
2.432500000000000000e+04,9.782000000000000000e+03
2.433000000000000000e+04,9.786000000000000000e+03
2.433500000000000000e+04,9.791000000000000000e+03
2.434000000000000000e+04,9.796000000000000000e+03
2.434500000000000000e+04,9.786000000000000000e+03
2.435000000000000000e+04,9.786000000000000000e+03
2.435500000000000000e+04,9.786000000000000000e+03
2.436000000000000000e+04,9.791000000000000000e+03
2.436500000000000000e+04,9.791000000000000000e+03
2.437000000000000000e+04,9.791000000000000000e+03
2.437500000000000000e+04,9.791000000000000000e+03
2.438000000000000000e+04,9.791000000000000000e+03
2.438500000000000000e+04,9.796000000000000000e+03
2.439000000000000000e+04,9.801000000000000000e+03
2.439500000000000000e+04,9.801000000000000000e+03
2.440000000000000000e+04,9.801000000000000000e+03
2.440500000000000000e+04,9.806000000000000000e+03
2.441000000000000000e+04,9.806000000000000000e+03
2.441500000000000000e+04,9.806000000000000000e+03
2.442000000000000000e+04,9.806000000000000000e+03
2.442500000000000000e+04,9.821000000000000000e+03
2.443000000000000000e+04,9.826000000000000000e+03
2.443500000000000000e+04,9.835000000000000000e+03
2.444000000000000000e+04,9.840000000000000000e+03
2.444500000000000000e+04,9.845000000000000000e+03
2.445000000000000000e+04,9.845000000000000000e+03
2.445500000000000000e+04,9.850000000000000000e+03
2.446000000000000000e+04,9.855000000000000000e+03
2.446500000000000000e+04,9.850000000000000000e+03
2.447000000000000000e+04,9.850000000000000000e+03
2.447500000000000000e+04,9.855000000000000000e+03
2.448000000000000000e+04,9.855000000000000000e+03
2.448500000000000000e+04,9.865000000000000000e+03
2.449000000000000000e+04,9.869000000000000000e+03
2.449500000000000000e+04,9.869000000000000000e+03
2.450000000000000000e+04,9.874000000000000000e+03
2.450500000000000000e+04,9.874000000000000000e+03
2.451000000000000000e+04,9.874000000000000000e+03
2.451500000000000000e+04,9.879000000000000000e+03
2.452000000000000000e+04,9.879000000000000000e+03
2.452500000000000000e+04,9.884000000000000000e+03
2.453000000000000000e+04,9.884000000000000000e+03
2.453500000000000000e+04,9.884000000000000000e+03
2.454000000000000000e+04,9.889000000000000000e+03
2.454500000000000000e+04,9.899000000000000000e+03
2.455000000000000000e+04,9.904000000000000000e+03
2.455500000000000000e+04,9.918000000000000000e+03
2.456000000000000000e+04,9.928000000000000000e+03
2.456500000000000000e+04,9.928000000000000000e+03
2.457000000000000000e+04,9.928000000000000000e+03
2.457500000000000000e+04,9.928000000000000000e+03
2.458000000000000000e+04,9.928000000000000000e+03
2.458500000000000000e+04,9.938000000000000000e+03
2.459000000000000000e+04,9.943000000000000000e+03
2.459500000000000000e+04,9.948000000000000000e+03
2.460000000000000000e+04,9.952000000000000000e+03
2.460500000000000000e+04,9.957000000000000000e+03
2.461000000000000000e+04,9.962000000000000000e+03
2.461500000000000000e+04,9.957000000000000000e+03
2.462000000000000000e+04,9.962000000000000000e+03
2.462500000000000000e+04,9.977000000000000000e+03
2.463000000000000000e+04,9.987000000000000000e+03
2.463500000000000000e+04,9.991000000000000000e+03
2.464000000000000000e+04,9.991000000000000000e+03
2.464500000000000000e+04,9.991000000000000000e+03
2.465000000000000000e+04,9.991000000000000000e+03
2.465500000000000000e+04,9.996000000000000000e+03
2.466000000000000000e+04,9.996000000000000000e+03
2.466500000000000000e+04,1.000100000000000000e+04
2.467000000000000000e+04,1.000600000000000000e+04
2.467500000000000000e+04,1.001100000000000000e+04
2.468000000000000000e+04,1.002600000000000000e+04
2.468500000000000000e+04,1.002600000000000000e+04
2.469000000000000000e+04,1.003000000000000000e+04
2.469500000000000000e+04,1.003000000000000000e+04
2.470000000000000000e+04,1.002600000000000000e+04
2.470500000000000000e+04,1.002600000000000000e+04
2.471000000000000000e+04,1.003000000000000000e+04
2.471500000000000000e+04,1.003500000000000000e+04
2.472000000000000000e+04,1.004000000000000000e+04
2.472500000000000000e+04,1.003500000000000000e+04
2.473000000000000000e+04,1.003500000000000000e+04
2.473500000000000000e+04,1.003500000000000000e+04
2.474000000000000000e+04,1.003500000000000000e+04
2.474500000000000000e+04,1.004500000000000000e+04
2.475000000000000000e+04,1.004500000000000000e+04
2.475500000000000000e+04,1.004500000000000000e+04
2.476000000000000000e+04,1.004500000000000000e+04
2.476500000000000000e+04,1.005500000000000000e+04
2.477000000000000000e+04,1.005500000000000000e+04
2.477500000000000000e+04,1.005500000000000000e+04
2.478000000000000000e+04,1.004500000000000000e+04
2.478500000000000000e+04,1.004500000000000000e+04
2.479000000000000000e+04,1.004500000000000000e+04
2.479500000000000000e+04,1.004500000000000000e+04
2.480000000000000000e+04,1.004500000000000000e+04
2.480500000000000000e+04,1.005500000000000000e+04
2.481000000000000000e+04,1.005500000000000000e+04
2.481500000000000000e+04,1.005000000000000000e+04
2.482000000000000000e+04,1.004500000000000000e+04
2.482500000000000000e+04,1.004500000000000000e+04
2.483000000000000000e+04,1.004500000000000000e+04
2.483500000000000000e+04,1.004000000000000000e+04
2.484000000000000000e+04,1.004000000000000000e+04
2.484500000000000000e+04,1.003500000000000000e+04
2.485000000000000000e+04,1.003500000000000000e+04
2.485500000000000000e+04,1.003000000000000000e+04
2.486000000000000000e+04,1.003000000000000000e+04
2.486500000000000000e+04,1.002600000000000000e+04
2.487000000000000000e+04,1.002600000000000000e+04
2.487500000000000000e+04,1.002600000000000000e+04
2.488000000000000000e+04,1.002600000000000000e+04
2.488500000000000000e+04,1.001600000000000000e+04
2.489000000000000000e+04,1.001100000000000000e+04
2.489500000000000000e+04,1.000600000000000000e+04
2.490000000000000000e+04,1.000600000000000000e+04
2.490500000000000000e+04,1.001100000000000000e+04
2.491000000000000000e+04,1.000600000000000000e+04
2.491500000000000000e+04,1.000600000000000000e+04
2.492000000000000000e+04,1.000600000000000000e+04
2.492500000000000000e+04,1.001600000000000000e+04
2.493000000000000000e+04,1.001600000000000000e+04
2.493500000000000000e+04,1.001100000000000000e+04
2.494000000000000000e+04,1.001100000000000000e+04
2.494500000000000000e+04,1.000600000000000000e+04
2.495000000000000000e+04,1.000100000000000000e+04
2.495500000000000000e+04,9.996000000000000000e+03
2.496000000000000000e+04,9.996000000000000000e+03
2.496500000000000000e+04,1.000100000000000000e+04
2.497000000000000000e+04,1.000600000000000000e+04
2.497500000000000000e+04,1.000600000000000000e+04
2.498000000000000000e+04,1.000100000000000000e+04
2.498500000000000000e+04,9.991000000000000000e+03
2.499000000000000000e+04,9.982000000000000000e+03
2.499500000000000000e+04,9.972000000000000000e+03
2.500000000000000000e+04,9.967000000000000000e+03
2.500500000000000000e+04,9.977000000000000000e+03
2.501000000000000000e+04,9.977000000000000000e+03
2.501500000000000000e+04,9.972000000000000000e+03
2.502000000000000000e+04,9.972000000000000000e+03
2.502500000000000000e+04,9.967000000000000000e+03
2.503000000000000000e+04,9.962000000000000000e+03
2.503500000000000000e+04,9.962000000000000000e+03
2.504000000000000000e+04,9.962000000000000000e+03
2.504500000000000000e+04,9.962000000000000000e+03
2.505000000000000000e+04,9.962000000000000000e+03
2.505500000000000000e+04,9.962000000000000000e+03
2.506000000000000000e+04,9.962000000000000000e+03
2.506500000000000000e+04,9.967000000000000000e+03
2.507000000000000000e+04,9.967000000000000000e+03
2.507500000000000000e+04,9.967000000000000000e+03
2.508000000000000000e+04,9.967000000000000000e+03
2.508500000000000000e+04,9.957000000000000000e+03
2.509000000000000000e+04,9.957000000000000000e+03
2.509500000000000000e+04,9.957000000000000000e+03
2.510000000000000000e+04,9.957000000000000000e+03
2.510500000000000000e+04,9.948000000000000000e+03
2.511000000000000000e+04,9.952000000000000000e+03
2.511500000000000000e+04,9.952000000000000000e+03
2.512000000000000000e+04,9.952000000000000000e+03
2.512500000000000000e+04,9.962000000000000000e+03
2.513000000000000000e+04,9.962000000000000000e+03
2.513500000000000000e+04,9.962000000000000000e+03
2.514000000000000000e+04,9.962000000000000000e+03
2.514500000000000000e+04,9.972000000000000000e+03
2.515000000000000000e+04,9.977000000000000000e+03
2.515500000000000000e+04,9.977000000000000000e+03
2.516000000000000000e+04,9.977000000000000000e+03
2.516500000000000000e+04,9.967000000000000000e+03
2.517000000000000000e+04,9.972000000000000000e+03
2.517500000000000000e+04,9.972000000000000000e+03
2.518000000000000000e+04,9.972000000000000000e+03
2.518500000000000000e+04,9.972000000000000000e+03
2.519000000000000000e+04,9.977000000000000000e+03
2.519500000000000000e+04,9.977000000000000000e+03
2.520000000000000000e+04,9.977000000000000000e+03
2.520500000000000000e+04,9.977000000000000000e+03
2.521000000000000000e+04,9.977000000000000000e+03
2.521500000000000000e+04,9.977000000000000000e+03
2.522000000000000000e+04,9.982000000000000000e+03
2.522500000000000000e+04,9.982000000000000000e+03
2.523000000000000000e+04,9.982000000000000000e+03
2.523500000000000000e+04,9.982000000000000000e+03
2.524000000000000000e+04,9.977000000000000000e+03
2.524500000000000000e+04,9.977000000000000000e+03
2.525000000000000000e+04,9.977000000000000000e+03
2.525500000000000000e+04,9.987000000000000000e+03
2.526000000000000000e+04,9.987000000000000000e+03
2.526500000000000000e+04,9.987000000000000000e+03
2.527000000000000000e+04,9.987000000000000000e+03
2.527500000000000000e+04,9.987000000000000000e+03
2.528000000000000000e+04,9.987000000000000000e+03
2.528500000000000000e+04,9.987000000000000000e+03
2.529000000000000000e+04,9.987000000000000000e+03
2.529500000000000000e+04,9.987000000000000000e+03
2.530000000000000000e+04,9.987000000000000000e+03
2.530500000000000000e+04,9.977000000000000000e+03
2.531000000000000000e+04,9.977000000000000000e+03
2.531500000000000000e+04,9.977000000000000000e+03
2.532000000000000000e+04,9.977000000000000000e+03
2.532500000000000000e+04,9.972000000000000000e+03
2.533000000000000000e+04,9.972000000000000000e+03
2.533500000000000000e+04,9.972000000000000000e+03
2.534000000000000000e+04,9.972000000000000000e+03
2.534500000000000000e+04,9.972000000000000000e+03
2.535000000000000000e+04,9.972000000000000000e+03
2.535500000000000000e+04,9.972000000000000000e+03
2.536000000000000000e+04,9.972000000000000000e+03
2.536500000000000000e+04,9.982000000000000000e+03
2.537000000000000000e+04,9.977000000000000000e+03
2.537500000000000000e+04,9.977000000000000000e+03
2.538000000000000000e+04,9.977000000000000000e+03
2.538500000000000000e+04,9.977000000000000000e+03
2.539000000000000000e+04,9.972000000000000000e+03
2.539500000000000000e+04,9.972000000000000000e+03
2.540000000000000000e+04,9.972000000000000000e+03
2.540500000000000000e+04,9.967000000000000000e+03
2.541000000000000000e+04,9.967000000000000000e+03
2.541500000000000000e+04,9.967000000000000000e+03
2.542000000000000000e+04,9.967000000000000000e+03
2.542500000000000000e+04,9.957000000000000000e+03
2.543000000000000000e+04,9.957000000000000000e+03
2.543500000000000000e+04,9.957000000000000000e+03
2.544000000000000000e+04,9.952000000000000000e+03
2.544500000000000000e+04,9.962000000000000000e+03
2.545000000000000000e+04,9.962000000000000000e+03
2.545500000000000000e+04,9.967000000000000000e+03
2.546000000000000000e+04,9.967000000000000000e+03
2.546500000000000000e+04,9.962000000000000000e+03
2.547000000000000000e+04,9.962000000000000000e+03
2.547500000000000000e+04,9.962000000000000000e+03
2.548000000000000000e+04,9.957000000000000000e+03
2.548500000000000000e+04,9.948000000000000000e+03
2.549000000000000000e+04,9.948000000000000000e+03
2.549500000000000000e+04,9.948000000000000000e+03
2.550000000000000000e+04,9.943000000000000000e+03
2.550500000000000000e+04,9.943000000000000000e+03
2.551000000000000000e+04,9.943000000000000000e+03
2.551500000000000000e+04,9.943000000000000000e+03
2.552000000000000000e+04,9.938000000000000000e+03
2.552500000000000000e+04,9.948000000000000000e+03
2.553000000000000000e+04,9.948000000000000000e+03
2.553500000000000000e+04,9.943000000000000000e+03
2.554000000000000000e+04,9.938000000000000000e+03
2.554500000000000000e+04,9.938000000000000000e+03
2.555000000000000000e+04,9.938000000000000000e+03
2.555500000000000000e+04,9.943000000000000000e+03
2.556000000000000000e+04,9.948000000000000000e+03
2.556500000000000000e+04,9.948000000000000000e+03
2.557000000000000000e+04,9.943000000000000000e+03
2.557500000000000000e+04,9.943000000000000000e+03
2.558000000000000000e+04,9.943000000000000000e+03
2.558500000000000000e+04,9.952000000000000000e+03
2.559000000000000000e+04,9.952000000000000000e+03
2.559500000000000000e+04,9.957000000000000000e+03
2.560000000000000000e+04,9.957000000000000000e+03
2.560500000000000000e+04,9.948000000000000000e+03
2.561000000000000000e+04,9.948000000000000000e+03
2.561500000000000000e+04,9.948000000000000000e+03
2.562000000000000000e+04,9.948000000000000000e+03
2.562500000000000000e+04,9.938000000000000000e+03
2.563000000000000000e+04,9.938000000000000000e+03
2.563500000000000000e+04,9.938000000000000000e+03
2.564000000000000000e+04,9.938000000000000000e+03
2.564500000000000000e+04,9.948000000000000000e+03
2.565000000000000000e+04,9.948000000000000000e+03
2.565500000000000000e+04,9.948000000000000000e+03
2.566000000000000000e+04,9.948000000000000000e+03
2.566500000000000000e+04,9.957000000000000000e+03
2.567000000000000000e+04,9.957000000000000000e+03
2.567500000000000000e+04,9.957000000000000000e+03
2.568000000000000000e+04,9.962000000000000000e+03
2.568500000000000000e+04,9.972000000000000000e+03
2.569000000000000000e+04,9.972000000000000000e+03
2.569500000000000000e+04,9.972000000000000000e+03
2.570000000000000000e+04,9.972000000000000000e+03
2.570500000000000000e+04,9.967000000000000000e+03
2.571000000000000000e+04,9.967000000000000000e+03
2.571500000000000000e+04,9.967000000000000000e+03
2.572000000000000000e+04,9.967000000000000000e+03
2.572500000000000000e+04,9.967000000000000000e+03
2.573000000000000000e+04,9.962000000000000000e+03
2.573500000000000000e+04,9.957000000000000000e+03
2.574000000000000000e+04,9.948000000000000000e+03
2.574500000000000000e+04,9.948000000000000000e+03
2.575000000000000000e+04,9.952000000000000000e+03
2.575500000000000000e+04,9.952000000000000000e+03
2.576000000000000000e+04,9.948000000000000000e+03
2.576500000000000000e+04,9.948000000000000000e+03
2.577000000000000000e+04,9.952000000000000000e+03
2.577500000000000000e+04,9.952000000000000000e+03
2.578000000000000000e+04,9.952000000000000000e+03
2.578500000000000000e+04,9.952000000000000000e+03
2.579000000000000000e+04,9.952000000000000000e+03
2.579500000000000000e+04,9.952000000000000000e+03
2.580000000000000000e+04,9.957000000000000000e+03
2.580500000000000000e+04,9.948000000000000000e+03
2.581000000000000000e+04,9.952000000000000000e+03
2.581500000000000000e+04,9.952000000000000000e+03
2.582000000000000000e+04,9.948000000000000000e+03
2.582500000000000000e+04,9.948000000000000000e+03
2.583000000000000000e+04,9.948000000000000000e+03
2.583500000000000000e+04,9.952000000000000000e+03
2.584000000000000000e+04,9.957000000000000000e+03
2.584500000000000000e+04,9.962000000000000000e+03
2.585000000000000000e+04,9.962000000000000000e+03
2.585500000000000000e+04,9.962000000000000000e+03
2.586000000000000000e+04,9.972000000000000000e+03
2.586500000000000000e+04,9.982000000000000000e+03
2.587000000000000000e+04,9.982000000000000000e+03
2.587500000000000000e+04,9.991000000000000000e+03
2.588000000000000000e+04,9.991000000000000000e+03
2.588500000000000000e+04,9.982000000000000000e+03
2.589000000000000000e+04,9.987000000000000000e+03
2.589500000000000000e+04,9.987000000000000000e+03
2.590000000000000000e+04,9.991000000000000000e+03
2.590500000000000000e+04,1.000100000000000000e+04
2.591000000000000000e+04,1.000100000000000000e+04
2.591500000000000000e+04,1.000100000000000000e+04
2.592000000000000000e+04,1.000100000000000000e+04
2.592500000000000000e+04,1.001600000000000000e+04
2.593000000000000000e+04,1.001600000000000000e+04
2.593500000000000000e+04,1.002100000000000000e+04
2.594000000000000000e+04,1.002100000000000000e+04
2.594500000000000000e+04,1.003500000000000000e+04
2.595000000000000000e+04,1.002600000000000000e+04
2.595500000000000000e+04,1.002100000000000000e+04
2.596000000000000000e+04,1.002600000000000000e+04
2.596500000000000000e+04,1.003500000000000000e+04
2.597000000000000000e+04,1.003500000000000000e+04
2.597500000000000000e+04,1.003500000000000000e+04
2.598000000000000000e+04,1.003500000000000000e+04
2.598500000000000000e+04,1.002600000000000000e+04
2.599000000000000000e+04,1.002600000000000000e+04
2.599500000000000000e+04,1.002600000000000000e+04
2.600000000000000000e+04,1.002600000000000000e+04
2.600500000000000000e+04,1.003500000000000000e+04
2.601000000000000000e+04,1.003500000000000000e+04
2.601500000000000000e+04,1.003500000000000000e+04
