
BT 19830 11773 Td (V5) Tj ET
19830 9952
19835 9987
19840 10016
19845 10040
19850 10065
19855 10104
19860 10152
19865 10182
19870 10211
19875 10245
19880 10309
19885 10401
19890 10518
19895 10597
19900 10675
19905 10723
19910 10767
19915 10806
19920 10777
19925 10670
19930 10396
19935 10196
19940 10123
19945 10079
19950 9996
19955 9874
19960 9777
19965 9777
19970 9816
19975 9816
19980 9796
19985 9796
19990 9801
19995 9821
20000 9845
20005 9869
20010 9894
20015 9913
20020 9913
20025 9908
20030 9894
20035 9894
20040 9894
20045 9894
20050 9894
20055 9889
20060 9889
20065 9889
20070 9889
20075 9894
20080 9894
20085 9894
20090 9894
20095 9894
20100 9894
20105 9894
20110 9899
20115 9899
20120 9899
20125 9899
20130 9899
20135 9894
20140 9899
20145 9899
20150 9899
20155 9904
20160 9904
20165 9904
20170 9904
20175 9908
20180 9904
20185 9904
20190 9899
20195 9894
20200 9894
20205 9899
20210 9904
20215 9908
20220 9908
20225 9913
20230 9913
20235 9908
20240 9908
20245 9904
20250 9904
20255 9913
20260 9913
20265 9918
20270 9918
20275 9933
20280 9933
20285 9933
20290 9938
20295 9938
20300 9933
20305 9938
20310 9938
20315 9948
20320 9948
20325 9948
20330 9948
20335 9948
20340 9952
20345 9957
20350 9962
20355 9962
20360 9962
20365 9952
20370 9952
20375 9957
20380 9967
20385 9972
20390 9972
20395 9982
20400 9982
20405 9987
20410 9987
20415 9977
20420 9977
20425 9977
20430 9987
20435 9996
20440 10001
20445 10001
20450 9996
20455 9987
20460 9991
20465 9996
20470 10001
20475 10006
20480 10006
20485 10006
20490 10006
20495 9996
20500 9996
20505 9996
20510 9996
20515 10006
20520 10006
20525 10006
20530 9996
20535 9987
20540 9987
20545 9987
20550 9987
20555 9987
20560 9987
20565 9982
20570 9977
20575 9977
20580 9977
20585 9972
20590 9972
20595 9977
20600 9977
20605 9972
20610 9972
20615 9957
20620 9957
20625 9957
20630 9957
20635 9957
20640 9952
20645 9948
20650 9948
20655 9943
20660 9938
20665 9938
20670 9938
20675 9938
20680 9938
20685 9933
20690 9933
20695 9928
20700 9923
20705 9918
20710 9918
20715 9923
20720 9928
20725 9928
20730 9923
20735 9918
20740 9913
20745 9908
20750 9908
20755 9908
20760 9908
20765 9904
20770 9904
20775 9908
20780 9904
20785 9904
20790 9904
20795 9894
20800 9894
20805 9894
20810 9894
20815 9889
20820 9889
20825 9889
20830 9889
20835 9894
20840 9899
20845 9904
20850 9908
20855 9908
20860 9913
20865 9913
20870 9913
20875 9904
20880 9904
20885 9904
20890 9904
20895 9904
20900 9908
20905 9908
20910 9908
20915 9908
20920 9913
20925 9913
20930 9913
20935 9913
20940 9918
20945 9918
20950 9918
20955 9908
20960 9908
20965 9908
20970 9913
20975 9923
20980 9923
20985 9923
20990 9918
20995 9918
21000 9918
21005 9928
21010 9928
21015 9928
21020 9928
21025 9928
21030 9928
21035 9918
21040 9918
21045 9918
21050 9918
21055 9918
21060 9918
21065 9918
21070 9918
21075 9913
21080 9913
21085 9913
21090 9913
21095 9913
21100 9913
21105 9913
21110 9913
21115 9923
21120 9918
21125 9918
21130 9918
21135 9908
21140 9904
21145 9904
21150 9904
21155 9899
21160 9899
21165 9899
21170 9899
21175 9908
21180 9908
21185 9908
21190 9904
21195 9913
21200 9913
21205 9918
21210 9918
21215 9904
21220 9904
21225 9904
21230 9899
21235 9899
21240 9899
21245 9899
21250 9894
21255 9904
21260 9904
21265 9904
21270 9899
21275 9899
21280 9899
21285 9894
21290 9889
21295 9899
21300 9899
21305 9904
21310 9908
21315 9899
21320 9894
21325 9894
21330 9894
21335 9894
21340 9894
21345 9899
21350 9899
21355 9899
21360 9899
21365 9899
21370 9899
21375 9899
21380 9899
21385 9899
21390 9899
21395 9899
21400 9899
21405 9899
21410 9899
21415 9904
21420 9908
21425 9913
21430 9923
21435 9913
21440 9913
21445 9913
21450 9913
21455 9918
21460 9918
21465 9918
21470 9918
21475 9923
21480 9923
21485 9923
21490 9918
21495 9913
21500 9913
21505 9908
21510 9899
21515 9908
21520 9928
21525 9928
21530 9928
21535 9928
21540 9928
21545 9928
21550 9928
21555 9928
21560 9928
21565 9928
21570 9928
21575 9928
21580 9923
21585 9933
21590 9933
21595 9933
21600 9933
21605 9928
21610 9928
21615 9928
21620 9923
21625 9938
21630 9938
21635 9938
21640 9943
21645 9948
21650 9948
21655 9943
21660 9943
21665 9948
21670 9952
21675 9952
21680 9957
21685 9972
21690 9977
21695 9977
21700 9982
21705 9982
21710 9987
21715 9987
21720 9987
21725 9987
21730 9996
21735 9996
21740 9996
21745 9996
21750 9996
21755 9991
21760 9991
21765 9982
21770 9991
21775 9991
21780 9991
21785 10001
21790 9991
21795 9991
21800 9991
21805 9987
21810 9987
21815 9982
21820 9982
21825 9972
21830 9967
21835 9962
21840 9952
21845 9952
21850 9943
21855 9943
21860 9933
21865 9913
21870 9913
21875 9913
21880 9908
21885 9908
21890 9904
21895 9904
21900 9904
21905 9904
21910 9904
21915 9904
21920 9904
21925 9904
21930 9908
21935 9908
21940 9908
21945 9908
21950 9904
21955 9913
21960 9923
21965 9943
21970 9977
21975 10006
21980 10040
21985 10074
21990 10113
21995 10143
22000 10152
22005 10192
22010 10245
22015 10309
22020 10401
22025 10499
22030 10597
22035 10675
22040 10723
22045 10758
22050 10767
22055 10728
22060 10592
22065 10338
22070 10148
22075 10065
22080 10021
22085 9957
22090 9845
22095 9767
22100 9767
22105 9786
22110 9777
22115 9767
22120 9747
22125 9762
22130 9772
22135 9806
22140 9840
22145 9855
22150 9845
22155 9845
22160 9840
22165 9835
22170 9835
22175 9835
22180 9835
22185 9835
22190 9830
22195 9830
22200 9830
22205 9830
22210 9816
22215 9816
22220 9816
22225 9816
22230 9816
22235 9816
22240 9816
22245 9821
22250 9806
22255 9801
22260 9796
22265 9791
22270 9796
22275 9801
22280 9801
22285 9801
22290 9806
22295 9806
22300 9806
22305 9806
22310 9801
22315 9796
22320 9796
22325 9791
22330 9782
22335 9777
22340 9777
22345 9777
22350 9772
22355 9772
22360 9777
22365 9777
22370 9777
22375 9782
22380 9782
22385 9786
22390 9796
22395 9796
22400 9801
22405 9801
22410 9801
22415 9796
22420 9791
22425 9791
22430 9796
22435 9796
22440 9806
22445 9811
22450 9806
22455 9801
22460 9796
22465 9791
22470 9796
22475 9806
22480 9816
22485 9826
22490 9816
22495 9816
22500 9806
22505 9806
22510 9811
22515 9821
22520 9826
22525 9826
22530 9826
22535 9826
22540 9830
22545 9830
22550 9830
22555 9830
22560 9830
22565 9840
22570 9850
22575 9855
22580 9855
22585 9850
22590 9850
22595 9855
22600 9860
22605 9865
22610 9869
22615 9869
22620 9869
22625 9869
22630 9869
22635 9869
22640 9869
22645 9869
22650 9860
22655 9860
22660 9860
22665 9850
22670 9850
22675 9850
22680 9850
22685 9850
22690 9860
22695 9860
22700 9855
22705 9850
22710 9860
22715 9860
22720 9855
22725 9855
22730 9850
22735 9850
22740 9845
22745 9845
22750 9840
22755 9840
22760 9840
22765 9840
22770 9850
22775 9845
22780 9840
22785 9840
22790 9835
22795 9830
22800 9830
22805 9830
22810 9835
22815 9840
22820 9840
22825 9845
22830 9830
22835 9826
22840 9821
22845 9821
22850 9816
22855 9821
22860 9821
22865 9816
22870 9821
22875 9816
22880 9811
22885 9811
22890 9811
22895 9811
22900 9806
22905 9806
22910 9811
22915 9806
22920 9806
22925 9806
22930 9816
22935 9816
22940 9816
22945 9816
22950 9811
22955 9811
22960 9811
22965 9811
22970 9801
22975 9801
22980 9801
22985 9801
22990 9791
22995 9796
23000 9796
23005 9796
23010 9806
23015 9806
23020 9806
23025 9806
23030 9796
23035 9801
23040 9801
23045 9801
23050 9811
23055 9816
23060 9816
23065 9816
23070 9826
23075 9830
23080 9830
23085 9830
23090 9830
23095 9830
23100 9830
23105 9835
23110 9835
23115 9835
23120 9835
23125 9830
23130 9840
23135 9840
23140 9850
23145 9850
23150 9845
23155 9840
23160 9835
23165 9830
23170 9840
23175 9840
23180 9840
23185 9840
23190 9830
23195 9830
23200 9830
23205 9830
23210 9826
23215 9826
23220 9826
23225 9826
23230 9816
23235 9816
23240 9816
23245 9816
23250 9816
23255 9811
23260 9811
23265 9811
23270 9821
23275 9816
23280 9816
23285 9816
23290 9811
23295 9811
23300 9811
23305 9811
23310 9801
23315 9801
23320 9801
23325 9796
23330 9796
23335 9796
23340 9801
23345 9801
23350 9796
23355 9796
23360 9796
23365 9791
23370 9791
23375 9791
23380 9791
23385 9786
23390 9796
23395 9796
23400 9796
23405 9791
23410 9791
23415 9791
23420 9786
23425 9782
23430 9786
23435 9782
23440 9782
23445 9782
23450 9782
23455 9777
23460 9777
23465 9777
23470 9777
23475 9777
23480 9782
23485 9782
23490 9782
23495 9782
23500 9782
23505 9782
23510 9772
23515 9772
23520 9772
23525 9772
23530 9772
23535 9772
23540 9772
23545 9772
23550 9772
23555 9772
23560 9772
23565 9777
23570 9767
23575 9767
23580 9767
23585 9767
23590 9762
23595 9762
23600 9762
23605 9762
23610 9767
23615 9767
23620 9767
23625 9762
23630 9752
23635 9762
23640 9762
23645 9762
23650 9762
23655 9762
23660 9762
23665 9762
23670 9762
23675 9762
23680 9752
23685 9752
23690 9752
23695 9747
23700 9738
23705 9738
23710 9738
23715 9738
23720 9747
23725 9752
23730 9757
23735 9757
23740 9762
23745 9762
23750 9762
23755 9767
23760 9772
23765 9772
23770 9767
23775 9767
23780 9762
23785 9767
23790 9767
23795 9772
23800 9777
23805 9782
23810 9782
23815 9786
23820 9796
23825 9801
23830 9801
23835 9801
23840 9791
23845 9801
23850 9801
23855 9801
23860 9811
23865 9811
23870 9806
23875 9806
23880 9816
23885 9826
23890 9826
23895 9826
23900 9821
23905 9806
23910 9801
23915 9796
23920 9791
23925 9791
23930 9786
23935 9786
23940 9786
23945 9782
23950 9777
23955 9767
23960 9747
23965 9738
23970 9738
23975 9728
23980 9723
23985 9728
23990 9733
23995 9733
24000 9718
24005 9708
24010 9704
24015 9699
24020 9704
24025 9708
24030 9713
24035 9718
24040 9728
24045 9733
24050 9733
24055 9733
24060 9743
24065 9747
24070 9777
24075 9796
24080 9835
24085 9860
24090 9899
24095 9933
24100 9957
24105 9977
24110 10026
24115 10104
24120 10201
24125 10323
24130 10465
24135 10606
24140 10714
24145 10782
24150 10841
24155 10870
24160 10836
24165 10738
24170 10475
24175 10260
24180 10152
24185 10099
24190 10006
24195 9865
24200 9752
24205 9718
24210 9718
24215 9699
24220 9669
24225 9650
24230 9660
24235 9669
24240 9694
24245 9723
24250 9738
24255 9772
24260 9786
24265 9786
24270 9786
24275 9782
24280 9786
24285 9777
24290 9777
24295 9777
24300 9777
24305 9772
24310 9772
24315 9772
24320 9772
24325 9782
24330 9786
24335 9791
24340 9796
24345 9786
24350 9786
24355 9786
24360 9791
24365 9791
24370 9791
24375 9791
24380 9791
24385 9796
24390 9801
24395 9801
24400 9801
24405 9806
24410 9806
24415 9806
24420 9806
24425 9821
24430 9826
24435 9835
24440 9840
24445 9845
24450 9845
24455 9850
24460 9855
24465 9850
24470 9850
24475 9855
24480 9855
24485 9865
24490 9869
24495 9869
24500 9874
24505 9874
24510 9874
24515 9879
24520 9879
24525 9884
24530 9884
24535 9884
24540 9889
24545 9899
24550 9904
24555 9918
24560 9928
24565 9928
24570 9928
24575 9928
24580 9928
24585 9938
24590 9943
24595 9948
24600 9952
24605 9957
24610 9962
24615 9957
24620 9962
24625 9977
24630 9987
24635 9991
24640 9991
24645 9991
24650 9991
24655 9996
24660 9996
24665 10001
24670 10006
24675 10011
24680 10026
24685 10026
24690 10030
24695 10030
24700 10026
24705 10026
24710 10030
24715 10035
24720 10040
24725 10035
24730 10035
24735 10035
24740 10035
24745 10045
24750 10045
24755 10045
24760 10045
24765 10055
24770 10055
24775 10055
24780 10045
24785 10045
24790 10045
24795 10045
24800 10045
24805 10055
24810 10055
24815 10050
24820 10045
24825 10045
24830 10045
24835 10040
24840 10040
24845 10035
24850 10035
24855 10030
24860 10030
24865 10026
24870 10026
24875 10026
24880 10026
24885 10016
24890 10011
24895 10006
24900 10006
24905 10011
24910 10006
24915 10006
24920 10006
24925 10016
24930 10016
24935 10011
24940 10011
24945 10006
24950 10001
24955 9996
24960 9996
24965 10001
24970 10006
24975 10006
24980 10001
24985 9991
24990 9982
24995 9972
25000 9967
25005 9977
25010 9977
25015 9972
25020 9972
25025 9967
25030 9962
25035 9962
25040 9962
25045 9962
25050 9962
25055 9962
25060 9962
25065 9967
25070 9967
25075 9967
25080 9967
25085 9957
25090 9957
25095 9957
25100 9957
25105 9948
25110 9952
25115 9952
25120 9952
25125 9962
25130 9962
25135 9962
25140 9962
25145 9972
25150 9977
25155 9977
25160 9977
25165 9967
25170 9972
25175 9972
25180 9972
25185 9972
25190 9977
25195 9977
25200 9977
25205 9977
25210 9977
25215 9977
25220 9982
25225 9982
25230 9982
25235 9982
25240 9977
25245 9977
25250 9977
25255 9987
25260 9987
25265 9987
25270 9987
25275 9987
25280 9987
25285 9987
25290 9987
25295 9987
25300 9987
25305 9977
25310 9977
25315 9977
25320 9977
25325 9972
25330 9972
25335 9972
25340 9972
25345 9972
25350 9972
25355 9972
25360 9972
25365 9982
25370 9977
25375 9977
25380 9977
25385 9977
25390 9972
25395 9972
25400 9972
25405 9967
25410 9967
25415 9967
25420 9967
25425 9957
25430 9957
25435 9957
25440 9952
25445 9962
25450 9962
25455 9967
25460 9967
25465 9962
25470 9962
25475 9962
25480 9957
25485 9948
25490 9948
25495 9948
25500 9943
25505 9943
25510 9943
25515 9943
25520 9938
25525 9948
25530 9948
25535 9943
25540 9938
25545 9938
25550 9938
25555 9943
25560 9948
25565 9948
25570 9943
25575 9943
25580 9943
25585 9952
25590 9952
25595 9957
25600 9957
25605 9948
25610 9948
25615 9948
25620 9948
25625 9938
25630 9938
25635 9938
25640 9938
25645 9948
25650 9948
25655 9948
25660 9948
25665 9957
25670 9957
25675 9957
25680 9962
25685 9972
25690 9972
25695 9972
25700 9972
25705 9967
25710 9967
25715 9967
25720 9967
25725 9967
25730 9962
25735 9957
25740 9948
25745 9948
25750 9952
25755 9952
25760 9948
25765 9948
25770 9952
25775 9952
25780 9952
25785 9952
25790 9952
25795 9952
25800 9957
25805 9948
25810 9952
25815 9952
25820 9948
25825 9948
25830 9948
25835 9952
25840 9957
25845 9962
25850 9962
25855 9962
25860 9972
25865 9982
25870 9982
25875 9991
25880 9991
25885 9982
25890 9987
25895 9987
25900 9991
25905 10001
25910 10001
25915 10001
25920 10001
25925 10016
25930 10016
25935 10021
25940 10021
25945 10035
25950 10026
25955 10021
25960 10026
25965 10035
25970 10035
25975 10035
25980 10035
25985 10026
25990 10026
25995 10026
26000 10026
26005 10035
26010 10035
26015 10035
