I,II,III,aVR,aVL,aVF,V1,V2,V3,V4,V5,V6
48.992,55.24,7.584,-53.968,13.72,29.4,-24.952,-17.592,-11.024,27.832,54.512,31.432
48.992,51.24,7.584,-51.968,13.72,27.4,-22.952,-13.591999999999999,-11.024,27.832,54.512,31.432
48.992,46.24,6.584,-48.968,13.72,25.4,-20.952,-9.591999999999999,-11.024,27.832,54.512,31.432
45.992,41.24,1.5839999999999996,-43.968,13.72,22.4,-17.952,-9.591999999999999,-11.024,24.832,51.512,31.432
41.992,37.24,-0.41600000000000037,-38.968,13.72,19.4,-16.952,-9.591999999999999,-12.024,21.832,49.512,30.432
36.992,33.24,-0.41600000000000037,-33.968,13.72,16.4,-16.952,-9.591999999999999,-13.024,18.832,48.512,29.432
31.991999999999997,30.240000000000002,-0.41600000000000037,-28.968000000000004,13.72,13.399999999999999,-16.952,-9.591999999999999,-15.024,15.832,46.512,27.432
26.991999999999997,28.240000000000002,-0.41600000000000037,-26.968000000000004,11.72,13.399999999999999,-13.952000000000002,-9.591999999999999,-15.024,12.832,43.512,19.432
23.991999999999997,24.240000000000002,-0.41600000000000037,-23.968000000000004,9.72,12.399999999999999,-12.952000000000002,-11.591999999999999,-18.024,9.832,39.512,13.431999999999999
23.991999999999997,19.240000000000002,-0.41600000000000037,-21.968000000000004,9.72,9.399999999999999,-12.952000000000002,-16.592,-25.024,4.832000000000001,32.512,8.431999999999999
22.991999999999997,16.240000000000002,-0.41600000000000037,-19.968000000000004,9.72,7.399999999999999,-12.952000000000002,-17.592,-27.024,2.8320000000000007,29.512,6.431999999999999
20.991999999999997,15.240000000000002,-0.41600000000000037,-17.968000000000004,9.72,6.399999999999999,-12.952000000000002,-17.592,-27.024,2.8320000000000007,29.512,6.431999999999999
19.991999999999997,13.240000000000002,-0.41600000000000037,-15.968000000000004,9.72,4.399999999999999,-12.952000000000002,-17.592,-27.024,2.8320000000000007,29.512,6.431999999999999
16.991999999999997,10.240000000000002,-0.41600000000000037,-10.968000000000004,6.720000000000001,4.399999999999999,-12.952000000000002,-17.592,-27.024,2.8320000000000007,29.512,6.431999999999999
14.991999999999997,9.240000000000002,-0.41600000000000037,-7.9680000000000035,4.720000000000001,4.399999999999999,-12.952000000000002,-18.592,-28.024,0.8320000000000007,27.512,5.431999999999999
11.991999999999997,9.240000000000002,-0.41600000000000037,-7.9680000000000035,1.7200000000000006,4.399999999999999,-12.952000000000002,-20.592,-31.024,-4.167999999999999,22.512,3.4319999999999986
11.991999999999997,8.240000000000002,-0.41600000000000037,-6.9680000000000035,1.7200000000000006,3.3999999999999986,-12.952000000000002,-22.592,-33.024,-8.168,18.512,1.4319999999999986
11.991999999999997,6.240000000000002,-0.41600000000000037,-4.9680000000000035,1.7200000000000006,1.3999999999999986,-12.952000000000002,-24.592,-35.024,-11.168,15.512,-0.5680000000000014
11.991999999999997,4.240000000000002,-0.41600000000000037,-3.9680000000000035,1.7200000000000006,-0.6000000000000014,-12.952000000000002,-25.592,-36.024,-14.168,12.512,-1.5680000000000014
11.991999999999997,2.240000000000002,-3.4160000000000004,-3.9680000000000035,1.7200000000000006,-2.6000000000000014,-12.952000000000002,-25.592,-39.024,-17.168,12.512,-1.5680000000000014
11.991999999999997,-0.759999999999998,-5.416,-2.9680000000000035,2.7200000000000006,-4.600000000000001,-13.952000000000002,-26.592,-41.024,-19.168,11.512,-3.5680000000000014
11.991999999999997,-3.759999999999998,-7.416,-0.9680000000000035,3.7200000000000006,-6.600000000000001,-14.952000000000002,-27.592,-43.024,-20.168,7.5120000000000005,-6.568000000000001
11.991999999999997,-7.759999999999998,-8.416,0.031999999999996476,5.720000000000001,-7.600000000000001,-16.952,-29.592,-44.024,-22.168,4.5120000000000005,-10.568000000000001
6.991999999999997,-7.759999999999998,-8.416,0.031999999999996476,5.720000000000001,-7.600000000000001,-16.952,-32.592,-49.024,-27.168,1.5120000000000005,-12.568000000000001
2.9919999999999973,-7.759999999999998,-9.416,0.031999999999996476,5.720000000000001,-9.600000000000001,-16.952,-34.592,-53.024,-32.168,-0.48799999999999955,-14.568000000000001
2.9919999999999973,-10.759999999999998,-12.416,0.031999999999996476,5.720000000000001,-14.600000000000001,-16.952,-37.592,-56.024,-37.168,-3.4879999999999995,-14.568000000000001
2.9919999999999973,-12.759999999999998,-14.416,1.0319999999999965,6.720000000000001,-17.6,-16.952,-38.592,-57.024,-39.168,-4.4879999999999995,-14.568000000000001
2.9919999999999973,-14.759999999999998,-15.416,3.0319999999999965,8.72,-19.6,-16.952,-38.592,-57.024,-39.168,-4.4879999999999995,-14.568000000000001
2.9919999999999973,-15.759999999999998,-17.416,5.0319999999999965,9.72,-20.6,-16.952,-38.592,-57.024,-39.168,-4.4879999999999995,-14.568000000000001
2.9919999999999973,-18.759999999999998,-19.416,5.0319999999999965,9.72,-23.6,-16.952,-38.592,-57.024,-39.168,-4.4879999999999995,-14.568000000000001
2.9919999999999973,-19.759999999999998,-21.416,5.0319999999999965,9.72,-24.6,-16.952,-38.592,-58.024,-40.168,-4.4879999999999995,-14.568000000000001
2.9919999999999973,-19.759999999999998,-21.416,5.0319999999999965,9.72,-24.6,-16.952,-38.592,-60.024,-42.168,-7.4879999999999995,-14.568000000000001
2.9919999999999973,-21.759999999999998,-21.416,6.0319999999999965,9.72,-24.6,-16.952,-37.592,-61.024,-43.168,-8.488,-14.568000000000001
2.9919999999999973,-22.759999999999998,-21.416,7.0319999999999965,9.72,-24.6,-16.952,-35.592,-61.024,-43.168,-8.488,-14.568000000000001
2.9919999999999973,-24.759999999999998,-21.416,9.031999999999996,9.72,-24.6,-16.952,-33.592,-61.024,-43.168,-8.488,-14.568000000000001
2.9919999999999973,-24.759999999999998,-21.416,9.031999999999996,9.72,-24.6,-16.952,-33.592,-61.024,-43.168,-8.488,-14.568000000000001
2.9919999999999973,-24.759999999999998,-21.416,9.031999999999996,9.72,-24.6,-16.952,-33.592,-61.024,-43.168,-8.488,-14.568000000000001
2.9919999999999973,-24.759999999999998,-21.416,9.031999999999996,9.72,-24.6,-16.952,-33.592,-61.024,-43.168,-8.488,-14.568000000000001
2.9919999999999973,-24.759999999999998,-23.416,9.031999999999996,10.72,-26.6,-16.952,-33.592,-61.024,-43.168,-8.488,-15.568000000000001
2.9919999999999973,-24.759999999999998,-27.416,9.031999999999996,12.72,-27.6,-16.952,-33.592,-61.024,-43.168,-8.488,-17.568
2.9919999999999973,-24.759999999999998,-29.416,9.031999999999996,13.72,-29.6,-16.952,-33.592,-61.024,-43.168,-8.488,-18.568
2.9919999999999973,-24.759999999999998,-29.416,9.031999999999996,13.72,-29.6,-16.952,-33.592,-61.024,-43.168,-8.488,-18.568
2.9919999999999973,-24.759999999999998,-29.416,9.031999999999996,13.72,-29.6,-16.952,-33.592,-61.024,-43.168,-8.488,-18.568
2.9919999999999973,-24.759999999999998,-29.416,9.031999999999996,13.72,-29.6,-16.952,-33.592,-61.024,-43.168,-8.488,-18.568
2.9919999999999973,-24.759999999999998,-29.416,9.031999999999996,13.72,-29.6,-16.952,-33.592,-61.024,-42.168,-6.4879999999999995,-18.568
2.9919999999999973,-24.759999999999998,-29.416,9.031999999999996,13.72,-29.6,-16.952,-33.592,-61.024,-40.168,-5.4879999999999995,-18.568
2.9919999999999973,-24.759999999999998,-29.416,9.031999999999996,13.72,-29.6,-16.952,-33.592,-61.024,-39.168,-4.4879999999999995,-18.568
2.9919999999999973,-24.759999999999998,-29.416,9.031999999999996,13.72,-29.6,-16.952,-33.592,-61.024,-39.168,-4.4879999999999995,-18.568
2.9919999999999973,-24.759999999999998,-29.416,9.031999999999996,13.72,-29.6,-16.952,-33.592,-61.024,-39.168,-4.4879999999999995,-18.568
2.9919999999999973,-24.759999999999998,-29.416,9.031999999999996,13.72,-29.6,-16.952,-33.592,-61.024,-39.168,-4.4879999999999995,-18.568
2.9919999999999973,-24.759999999999998,-29.416,9.031999999999996,13.72,-29.6,-16.952,-33.592,-61.024,-39.168,-4.4879999999999995,-18.568
2.9919999999999973,-24.759999999999998,-29.416,9.031999999999996,13.72,-29.6,-16.952,-33.592,-61.024,-34.168,-4.4879999999999995,-18.568
4.991999999999997,-24.759999999999998,-30.416,9.031999999999996,14.72,-29.6,-16.952,-33.592,-60.024,-31.168,-3.4879999999999995,-18.568
9.991999999999997,-24.759999999999998,-33.416,9.031999999999996,19.72,-29.6,-16.952,-33.592,-58.024,-31.168,-0.48799999999999955,-18.568
11.991999999999997,-24.759999999999998,-34.416,9.031999999999996,21.72,-29.6,-16.952,-33.592,-57.024,-30.168,1.5120000000000005,-18.568
11.991999999999997,-24.759999999999998,-34.416,9.031999999999996,21.72,-29.6,-16.952,-33.592,-57.024,-28.168,2.5120000000000005,-18.568
11.991999999999997,-24.759999999999998,-34.416,9.031999999999996,21.72,-29.6,-16.952,-33.592,-57.024,-26.168,4.5120000000000005,-18.568
11.991999999999997,-24.759999999999998,-34.416,9.031999999999996,21.72,-29.6,-16.952,-33.592,-57.024,-26.168,4.5120000000000005,-18.568
11.991999999999997,-24.759999999999998,-34.416,9.031999999999996,21.72,-29.6,-16.952,-33.592,-57.024,-26.168,4.5120000000000005,-18.568
11.991999999999997,-24.759999999999998,-34.416,9.031999999999996,21.72,-29.6,-16.952,-33.592,-57.024,-26.168,4.5120000000000005,-18.568
11.991999999999997,-24.759999999999998,-34.416,9.031999999999996,21.72,-29.6,-17.952,-33.592,-57.024,-26.168,4.5120000000000005,-18.568
11.991999999999997,-24.759999999999998,-34.416,9.031999999999996,21.72,-29.6,-19.952,-33.592,-57.024,-26.168,4.5120000000000005,-18.568
11.991999999999997,-24.759999999999998,-34.416,9.031999999999996,21.72,-29.6,-20.952,-33.592,-56.024,-26.168,4.5120000000000005,-18.568
11.991999999999997,-24.759999999999998,-34.416,9.031999999999996,21.72,-29.6,-20.952,-33.592,-54.024,-26.168,4.5120000000000005,-18.568
11.991999999999997,-24.759999999999998,-34.416,9.031999999999996,21.72,-29.6,-21.952,-33.592,-53.024,-26.168,4.5120000000000005,-18.568
11.991999999999997,-24.759999999999998,-34.416,9.031999999999996,21.72,-29.6,-24.952,-33.592,-53.024,-26.168,4.5120000000000005,-18.568
11.991999999999997,-24.759999999999998,-34.416,9.031999999999996,21.72,-29.6,-24.952,-33.592,-53.024,-26.168,4.5120000000000005,-18.568
11.991999999999997,-24.759999999999998,-34.416,9.031999999999996,21.72,-29.6,-24.952,-33.592,-53.024,-26.168,4.5120000000000005,-18.568
11.991999999999997,-24.759999999999998,-33.416,9.031999999999996,20.72,-29.6,-24.952,-33.592,-53.024,-26.168,4.5120000000000005,-18.568
11.991999999999997,-24.759999999999998,-31.416,9.031999999999996,15.72,-29.6,-24.952,-33.592,-53.024,-26.168,4.5120000000000005,-18.568
11.991999999999997,-24.759999999999998,-29.416,9.031999999999996,13.72,-29.6,-24.952,-32.592,-53.024,-27.168,2.5120000000000005,-18.568
11.991999999999997,-24.759999999999998,-29.416,9.031999999999996,13.72,-29.6,-24.952,-31.592,-53.024,-29.168,-0.48799999999999955,-18.568
11.991999999999997,-24.759999999999998,-29.416,9.031999999999996,13.72,-29.6,-24.952,-29.592,-53.024,-31.168,-4.4879999999999995,-18.568
6.991999999999997,-26.759999999999998,-29.416,11.031999999999996,13.72,-29.6,-20.952,-24.592,-45.024,-31.168,-4.4879999999999995,-21.568
1.9919999999999973,-29.759999999999998,-29.416,15.031999999999996,13.72,-29.6,-15.952000000000002,-18.592,-38.024,-33.168,-7.4879999999999995,-23.568
-0.008000000000002672,-34.76,-29.416,20.031999999999996,13.72,-32.6,-13.952000000000002,-9.591999999999999,-34.024,-40.168,-17.488,-26.568
-1.0080000000000027,-39.76,-33.416,22.031999999999996,13.72,-37.6,-7.952000000000002,1.4080000000000013,-26.024,-45.168,-24.488,-31.568
-1.0080000000000027,-44.76,-38.416,24.031999999999996,13.72,-44.6,1.0479999999999983,13.408000000000001,-18.024,-49.168,-28.488,-37.568
-1.0080000000000027,-50.76,-43.416,26.031999999999996,13.72,-51.6,9.047999999999998,25.408,-10.024,-52.168,-34.488,-44.568
-1.0080000000000027,-62.76,-56.416,31.031999999999996,21.72,-63.6,24.048,42.408,4.976000000000001,-62.168,-46.488,-51.568
-1.0080000000000027,-73.75999999999999,-66.416,37.032,27.72,-74.6,39.048,61.408,18.976,-71.168,-57.488,-59.568
-1.0080000000000027,-80.75999999999999,-74.416,44.032,32.72,-81.6,54.048,81.408,33.976,-79.168,-65.488,-66.568
-2.0080000000000027,-86.75999999999999,-78.416,48.032,34.72,-85.6,66.048,95.408,47.976,-82.168,-71.488,-72.568
-4.008000000000003,-91.75999999999999,-81.416,50.032,34.72,-86.6,76.048,107.408,61.976,-84.168,-78.488,-77.568
-5.008000000000003,-96.75999999999999,-85.416,51.032,34.72,-88.6,86.048,119.408,74.976,-85.168,-84.488,-82.568
-5.008000000000003,-98.75999999999999,-87.416,54.032,34.72,-93.6,98.048,136.40800000000002,92.976,-85.168,-87.488,-87.568
-5.008000000000003,-100.75999999999999,-89.416,55.032,34.72,-96.6,110.048,153.40800000000002,109.976,-83.168,-90.488,-92.568
-5.008000000000003,-100.75999999999999,-89.416,55.032,34.72,-96.6,120.048,168.40800000000002,127.976,-78.168,-95.488,-97.568
-5.008000000000003,-95.75999999999999,-85.416,53.032,34.72,-92.6,127.048,179.40800000000002,142.976,-68.168,-96.488,-98.568
-5.008000000000003,-88.75999999999999,-80.416,49.032,34.72,-87.6,134.048,189.40800000000002,157.976,-57.168,-96.488,-98.568
-5.008000000000003,-80.75999999999999,-73.416,45.032,33.72,-80.6,140.048,200.40800000000002,175.976,-42.168,-95.488,-97.568
-5.008000000000003,-68.75999999999999,-61.416,38.032,28.72,-65.6,145.048,215.40800000000002,202.976,-17.168,-87.488,-92.568
-4.008000000000003,-55.76,-50.416,30.031999999999996,24.72,-53.6,149.048,228.40800000000002,227.976,8.832,-78.488,-86.568
-0.008000000000002672,-41.76,-42.416,21.031999999999996,23.72,-43.6,153.048,240.40800000000002,251.976,36.832,-66.488,-77.568
2.9919999999999973,-28.759999999999998,-34.416,13.031999999999996,21.72,-33.6,156.048,251.40800000000002,274.976,64.832,-54.488,-69.568
14.991999999999997,-1.759999999999998,-17.416,-6.9680000000000035,16.72,-11.600000000000001,156.048,266.408,313.976,121.832,-30.488,-57.568
27.991999999999997,30.240000000000002,3.5839999999999996,-27.968000000000004,11.72,14.399999999999999,155.048,280.408,353.976,182.832,-2.4879999999999995,-41.568
39.992,71.24000000000001,32.584,-52.968,4.720000000000001,48.4,153.048,293.408,390.976,254.832,32.512,-19.568
50.992,109.24000000000001,58.584,-76.968,-2.2799999999999994,80.4,144.048,298.408,419.976,319.832,65.512,2.4319999999999986
62.992,144.24,81.584,-101.968,-9.28,110.4,131.048,298.408,442.976,379.832,98.512,24.432
74.99199999999999,180.24,106.584,-126.968,-16.28,141.4,117.048,298.408,466.976,441.832,133.512,45.432
91.99199999999999,242.24,151.584,-166.96800000000002,-31.28,193.4,92.048,295.408,498.976,546.832,195.512,88.432
109.99199999999999,305.24,195.584,-207.96800000000002,-44.28,247.4,64.048,289.408,526.976,652.832,260.512,132.432
129.992,370.24,240.584,-249.96800000000002,-54.28,305.4,32.048,277.408,546.976,762.832,330.512,179.432
148.992,422.24,273.584,-284.968,-61.28,347.4,3.0479999999999983,265.408,558.976,847.832,386.512,217.432
166.992,467.24,300.584,-316.968,-66.28,382.4,-22.952,253.40800000000002,567.976,920.832,436.512,250.432
186.992,514.24,328.584,-350.968,-71.28,420.4,-51.952,241.40800000000002,575.976,997.832,490.512,286.432
210.992,584.24,373.584,-400.968,-78.28,480.4,-100.952,221.40800000000002,582.976,1104.832,572.512,338.432
237.992,655.24,416.584,-449.968,-86.28,537.4,-153.952,197.40800000000002,587.976,1210.832,653.512,393.432
267.992,727.24,456.584,-499.968,-93.28,592.4,-211.952,167.40800000000002,587.976,1315.832,733.512,450.432
288.992,778.24,487.584,-533.968,-99.28,632.4,-259.952,138.40800000000002,574.976,1384.832,792.512,493.432
304.992,821.24,515.584,-561.968,-104.28,667.4,-304.952,110.408,558.976,1441.832,843.512,531.432
321.992,869.24,547.584,-592.968,-111.28,706.4,-353.952,75.408,534.976,1498.832,899.512,573.432
338.992,933.24,595.584,-635.968,-126.28,763.4,-423.952,10.408000000000001,482.976,1561.832,974.512,630.432
352.992,985.24,633.584,-667.968,-138.28,809.4,-485.952,-50.592,428.976,1603.832,1033.512,677.432
362.992,1023.24,663.584,-691.968,-148.28,842.4,-540.952,-108.592,371.976,1624.832,1076.512,711.432
372.992,1061.24,693.584,-714.968,-158.28,875.4,-595.952,-166.59199999999998,315.976,1646.832,1119.512,746.432
382.992,1108.24,728.584,-744.968,-170.28,915.4,-681.952,-264.592,205.976,1647.832,1171.512,793.432
389.992,1150.24,760.584,-770.968,-184.28,951.4,-765.952,-365.592,88.976,1637.832,1218.512,837.432
389.992,1178.24,785.584,-784.968,-198.28,979.4,-843.952,-472.592,-39.024,1600.832,1251.512,872.432
388.992,1190.24,799.584,-791.968,-207.28,992.4,-902.952,-558.592,-150.024,1555.832,1267.512,894.432
387.992,1192.24,806.584,-791.968,-210.28,996.4,-949.952,-628.592,-246.024,1505.832,1272.512,905.432
385.992,1193.24,812.584,-791.968,-213.28,999.4,-995.952,-699.592,-344.024,1454.832,1277.512,917.432
375.992,1181.24,812.584,-778.968,-218.28,994.4,-1048.952,-803.592,-493.024,1344.832,1264.512,917.432
362.992,1161.24,807.584,-761.968,-222.28,981.4,-1096.952,-901.592,-639.024,1229.832,1244.512,913.432
342.992,1126.24,789.584,-737.968,-222.28,954.4,-1136.952,-986.592,-779.024,1102.832,1210.512,903.432
325.992,1092.24,771.584,-711.968,-222.28,928.4,-1161.952,-1045.592,-879.024,994.832,1174.512,890.432
310.992,1059.24,753.584,-684.968,-222.28,903.4,-1177.952,-1090.592,-957.024,898.832,1137.512,875.432
294.992,1023.24,733.584,-656.968,-222.28,876.4,-1193.952,-1135.592,-1037.024,797.832,1097.512,858.432
266.992,961.24,698.584,-611.968,-219.28,829.4,-1198.952,-1185.592,-1137.024,655.832,1030.512,823.432
239.992,894.24,659.584,-564.968,-215.28,776.4,-1195.952,-1227.592,-1228.024,513.832,962.512,786.432
212.992,822.24,614.584,-514.968,-207.28,717.4,-1180.952,-1257.592,-1308.024,371.832,892.512,743.432
192.992,765.24,577.584,-476.968,-198.28,669.4,-1165.952,-1271.592,-1360.024,267.832,834.512,707.432
175.992,713.24,542.584,-443.968,-188.28,626.4,-1150.952,-1280.592,-1399.024,177.832,781.512,674.432
158.992,657.24,503.584,-406.968,-177.28,578.4,-1130.952,-1284.592,-1436.024,82.832,723.512,638.432
135.992,574.24,443.584,-354.968,-159.28,508.4,-1085.952,-1266.592,-1459.024,-35.168,641.512,585.432
116.99199999999999,504.24,393.584,-309.968,-144.28,449.4,-1042.952,-1243.592,-1468.024,-127.168,573.512,541.432
99.99199999999999,448.24,353.584,-273.968,-130.28,400.4,-1000.952,-1213.592,-1463.024,-186.168,519.512,504.432
82.99199999999999,392.24,313.584,-236.96800000000002,-117.28,352.4,-959.952,-1183.592,-1458.024,-246.168,466.512,467.432
65.99199999999999,313.24,252.584,-190.96800000000002,-95.28,282.4,-895.952,-1123.592,-1430.024,-322.168,395.512,414.432
49.992,237.24,191.584,-144.96800000000002,-74.28,212.4,-830.952,-1059.592,-1395.024,-393.168,325.512,360.432
37.992,169.24,134.584,-101.968,-54.28,150.4,-763.952,-992.592,-1342.024,-446.168,260.512,307.432
29.991999999999997,119.24000000000001,92.584,-71.968,-38.28,103.4,-710.952,-933.592,-1291.024,-479.168,212.512,268.432
24.991999999999997,82.24000000000001,64.584,-52.968,-27.28,70.4,-668.952,-879.592,-1241.024,-498.168,177.512,240.432
19.991999999999997,47.24,36.584,-32.968,-15.28,37.4,-627.952,-826.592,-1191.024,-516.168,142.512,212.432
14.991999999999997,9.240000000000002,4.584,-10.968000000000004,-0.27999999999999936,3.3999999999999986,-572.952,-749.592,-1109.024,-518.168,102.512,177.432
9.991999999999997,-24.759999999999998,-25.416,9.031999999999996,12.72,-27.6,-519.952,-675.592,-1026.024,-518.168,65.512,143.432
4.991999999999997,-51.76,-49.416,24.031999999999996,21.72,-50.6,-469.952,-608.592,-942.024,-510.168,36.512,110.432
2.9919999999999973,-66.75999999999999,-63.416,32.032,27.72,-63.6,-430.952,-555.592,-876.024,-496.168,19.512,91.432
2.9919999999999973,-72.75999999999999,-70.416,35.032,31.72,-72.6,-399.952,-512.592,-823.024,-478.168,9.512,79.432
2.9919999999999973,-79.75999999999999,-76.416,39.032,34.72,-80.6,-367.952,-468.592,-769.024,-459.168,-0.48799999999999955,67.432
2.9919999999999973,-87.75999999999999,-84.416,44.032,36.72,-85.6,-332.952,-419.592,-702.024,-429.168,-5.4879999999999995,52.432
2.9919999999999973,-91.75999999999999,-89.416,47.032,39.72,-90.6,-298.952,-373.592,-636.024,-398.168,-9.488,41.432
2.9919999999999973,-91.75999999999999,-92.416,47.032,41.72,-95.6,-266.952,-333.592,-571.024,-366.168,-11.488,36.432
2.9919999999999973,-91.75999999999999,-93.416,47.032,42.72,-96.6,-242.952,-301.592,-524.024,-341.168,-12.488,32.432
2.9919999999999973,-91.75999999999999,-93.416,47.032,42.72,-96.6,-222.952,-273.592,-486.024,-319.168,-12.488,30.432
2.9919999999999973,-90.75999999999999,-91.416,46.032,42.72,-95.6,-202.952,-244.59199999999998,-446.024,-296.168,-12.488,27.432
2.9919999999999973,-80.75999999999999,-81.416,38.032,39.72,-85.6,-179.952,-214.59199999999998,-396.024,-266.168,-12.488,22.432
4.991999999999997,-73.75999999999999,-75.416,33.032,38.72,-78.6,-160.952,-190.59199999999998,-356.024,-242.168,-11.488,18.432
7.991999999999997,-69.75999999999999,-73.416,32.032,38.72,-74.6,-145.952,-174.59199999999998,-328.024,-223.168,-10.488,16.432
10.991999999999997,-66.75999999999999,-72.416,30.031999999999996,38.72,-71.6,-130.952,-157.59199999999998,-300.024,-205.168,-8.488,15.431999999999999
11.991999999999997,-57.76,-65.416,25.031999999999996,36.72,-62.6,-115.952,-133.59199999999998,-261.024,-179.168,-3.4879999999999995,15.431999999999999
11.991999999999997,-47.76,-57.416,20.031999999999996,33.72,-53.6,-101.952,-109.592,-222.024,-152.168,1.5120000000000005,15.431999999999999
14.991999999999997,-40.76,-50.416,12.031999999999996,31.72,-48.6,-92.952,-89.592,-187.024,-127.168,9.512,15.431999999999999
16.991999999999997,-33.76,-45.416,7.0319999999999965,29.72,-42.6,-83.952,-74.592,-160.024,-108.168,13.512,15.431999999999999
17.991999999999997,-26.759999999999998,-41.416,4.0319999999999965,29.72,-35.6,-77.952,-62.592,-140.024,-95.168,15.512,15.431999999999999
19.991999999999997,-20.759999999999998,-38.416,0.031999999999996476,29.72,-29.6,-70.952,-50.592,-121.024,-81.168,16.512,15.431999999999999
19.991999999999997,-12.759999999999998,-28.416,-1.9680000000000035,24.72,-21.6,-63.952,-40.592,-98.024,-67.168,19.512,17.432
19.991999999999997,-5.759999999999998,-20.416,-4.9680000000000035,20.72,-14.600000000000001,-55.952,-31.592,-78.024,-54.168,21.512,19.432
19.991999999999997,2.240000000000002,-15.416,-6.9680000000000035,15.72,-6.600000000000001,-48.952,-24.592,-63.024,-46.168,24.512,19.432
19.991999999999997,6.240000000000002,-12.416,-9.968000000000004,13.72,-2.6000000000000014,-43.952,-17.592,-51.024,-38.168,25.512,19.432
19.991999999999997,8.240000000000002,-10.416,-12.968000000000004,13.72,-1.6000000000000014,-39.952,-11.591999999999999,-41.024,-30.168,25.512,19.432
19.991999999999997,9.240000000000002,-8.416,-16.968000000000004,13.72,0.3999999999999986,-36.952,-5.591999999999999,-31.024,-22.168,25.512,19.432
22.991999999999997,12.240000000000002,-8.416,-18.968000000000004,13.72,0.3999999999999986,-36.952,-2.5919999999999987,-18.024,-17.168,25.512,19.432
23.991999999999997,14.240000000000002,-7.416,-20.968000000000004,13.72,1.3999999999999986,-36.952,-0.5919999999999987,-9.024,-11.168,25.512,19.432
23.991999999999997,17.240000000000002,-5.416,-20.968000000000004,13.72,3.3999999999999986,-36.952,2.4080000000000013,-1.0239999999999991,-4.167999999999999,25.512,19.432
23.991999999999997,18.240000000000002,-4.416,-20.968000000000004,13.72,4.399999999999999,-35.952,6.408000000000001,3.976000000000001,-0.16799999999999926,26.512,19.432
23.991999999999997,18.240000000000002,-4.416,-20.968000000000004,13.72,4.399999999999999,-33.952,11.408000000000001,8.976,1.8320000000000007,28.512,19.432
23.991999999999997,18.240000000000002,-3.4160000000000004,-20.968000000000004,13.72,5.399999999999999,-32.952,15.408000000000001,13.976,2.8320000000000007,29.512,19.432
23.991999999999997,23.240000000000002,3.5839999999999996,-20.968000000000004,8.72,10.399999999999999,-32.952,15.408000000000001,18.976,5.832000000000001,29.512,16.432
23.991999999999997,26.240000000000002,7.584,-21.968000000000004,5.720000000000001,13.399999999999999,-32.952,15.408000000000001,21.976,6.832000000000001,29.512,14.431999999999999
23.991999999999997,26.240000000000002,7.584,-23.968000000000004,5.720000000000001,13.399999999999999,-32.952,15.408000000000001,21.976,6.832000000000001,29.512,11.431999999999999
23.991999999999997,26.240000000000002,7.584,-24.968000000000004,5.720000000000001,13.399999999999999,-32.952,18.408,26.976,8.832,29.512,10.431999999999999
23.991999999999997,26.240000000000002,7.584,-24.968000000000004,5.720000000000001,13.399999999999999,-32.952,21.408,33.976,9.832,29.512,10.431999999999999
23.991999999999997,26.240000000000002,7.584,-24.968000000000004,5.720000000000001,13.399999999999999,-31.952,24.408,39.976,11.832,29.512,10.431999999999999
23.991999999999997,26.240000000000002,7.584,-24.968000000000004,5.720000000000001,13.399999999999999,-26.952,27.408,41.976,14.832,29.512,10.431999999999999
23.991999999999997,26.240000000000002,7.584,-24.968000000000004,5.720000000000001,13.399999999999999,-24.952,29.408,43.976,17.832,29.512,11.431999999999999
23.991999999999997,26.240000000000002,7.584,-24.968000000000004,5.720000000000001,13.399999999999999,-24.952,30.408,45.976,20.832,29.512,13.431999999999999
23.991999999999997,26.240000000000002,7.584,-24.968000000000004,5.720000000000001,13.399999999999999,-24.952,32.408,47.976,23.832,29.512,15.431999999999999
23.991999999999997,26.240000000000002,7.584,-24.968000000000004,5.720000000000001,13.399999999999999,-24.952,35.408,51.976,26.832,32.512,15.431999999999999
23.991999999999997,26.240000000000002,7.584,-24.968000000000004,5.720000000000001,13.399999999999999,-24.952,36.408,56.976,27.832,35.512,15.431999999999999
23.991999999999997,26.240000000000002,7.584,-24.968000000000004,5.720000000000001,13.399999999999999,-24.952,36.408,58.976,30.832,40.512,18.432
23.991999999999997,27.240000000000002,7.584,-24.968000000000004,5.720000000000001,13.399999999999999,-25.952,36.408,59.976,32.832,42.512,19.432
23.991999999999997,29.240000000000002,7.584,-24.968000000000004,5.720000000000001,13.399999999999999,-29.952,36.408,59.976,33.832,42.512,19.432
23.991999999999997,30.240000000000002,7.584,-24.968000000000004,5.720000000000001,13.399999999999999,-32.952,37.408,59.976,35.832,42.512,19.432
23.991999999999997,30.240000000000002,7.584,-24.968000000000004,5.720000000000001,13.399999999999999,-32.952,41.408,64.976,38.832,44.512,19.432
23.991999999999997,30.240000000000002,7.584,-24.968000000000004,5.720000000000001,13.399999999999999,-32.952,46.408,69.976,41.832,47.512,21.432
23.991999999999997,30.240000000000002,7.584,-24.968000000000004,5.720000000000001,13.399999999999999,-32.952,48.408,71.976,46.832,49.512,26.432
23.991999999999997,31.240000000000002,8.584,-25.968000000000004,5.720000000000001,15.399999999999999,-32.952,50.408,73.976,48.832,51.512,27.432
23.991999999999997,33.24,9.584,-27.968000000000004,5.720000000000001,18.4,-32.952,52.408,75.976,48.832,53.512,27.432
23.991999999999997,35.24,11.584,-28.968000000000004,5.720000000000001,21.4,-32.952,53.408,76.976,48.832,54.512,27.432
23.991999999999997,37.24,13.584,-28.968000000000004,5.720000000000001,24.4,-32.952,53.408,76.976,48.832,54.512,27.432
24.991999999999997,39.24,15.584,-29.968000000000004,5.720000000000001,25.4,-30.952,54.408,78.976,50.832,54.512,28.432
27.991999999999997,39.24,15.584,-32.968,5.720000000000001,25.4,-25.952,57.408,83.976,55.832,54.512,31.432
27.991999999999997,39.24,15.584,-32.968,5.720000000000001,25.4,-24.952,57.408,87.976,56.832,55.512,31.432
27.991999999999997,39.24,15.584,-32.968,5.720000000000001,25.4,-24.952,57.408,90.976,56.832,56.512,31.432
27.991999999999997,39.24,15.584,-32.968,5.720000000000001,25.4,-24.952,58.408,93.976,56.832,58.512,31.432
27.991999999999997,39.24,15.584,-32.968,5.720000000000001,25.4,-24.952,60.408,96.976,59.832,58.512,31.432
27.991999999999997,39.24,15.584,-32.968,5.720000000000001,25.4,-24.952,62.408,98.976,61.832,58.512,31.432
27.991999999999997,39.24,15.584,-32.968,5.720000000000001,25.4,-24.952,62.408,100.976,63.832,58.512,33.432
27.991999999999997,39.24,15.584,-32.968,5.720000000000001,25.4,-24.952,62.408,101.976,64.832,58.512,35.432
30.991999999999997,41.24,15.584,-37.968,5.720000000000001,25.4,-24.952,62.408,101.976,64.832,58.512,35.432
32.992,43.24,15.584,-41.968,5.720000000000001,25.4,-24.952,62.408,101.976,64.832,58.512,35.432
32.992,43.24,15.584,-41.968,5.720000000000001,25.4,-24.952,62.408,101.976,64.832,58.512,35.432
32.992,44.24,15.584,-41.968,5.720000000000001,26.4,-24.952,62.408,102.976,67.832,58.512,35.432
32.992,45.24,15.584,-41.968,5.720000000000001,28.4,-24.952,62.408,104.976,72.832,58.512,35.432
32.992,47.24,15.584,-41.968,5.720000000000001,29.4,-24.952,62.408,106.976,77.832,58.512,35.432
32.992,47.24,15.584,-41.968,5.720000000000001,29.4,-24.952,67.408,108.976,80.832,63.512,35.432
33.992,49.24,15.584,-42.968,5.720000000000001,29.4,-25.952,70.408,110.976,81.832,66.512,35.432
38.992,54.24,15.584,-44.968,5.720000000000001,32.4,-30.952,70.408,110.976,81.832,66.512,35.432
40.992,55.24,15.584,-45.968,5.720000000000001,33.4,-32.952,71.408,111.976,82.832,67.512,35.432
40.992,55.24,15.584,-45.968,5.720000000000001,33.4,-32.952,73.408,113.976,84.832,69.512,35.432
40.992,55.24,15.584,-45.968,5.720000000000001,33.4,-32.952,74.408,114.976,86.832,70.512,35.432
40.992,57.24,18.584,-48.968,5.720000000000001,35.4,-32.952,74.408,119.976,88.832,70.512,37.432
40.992,59.24,19.584,-49.968,5.720000000000001,37.4,-32.952,75.408,124.976,91.832,71.512,40.432
40.992,59.24,19.584,-49.968,5.720000000000001,37.4,-32.952,78.408,129.976,93.832,74.512,42.432
41.992,60.24,19.584,-50.968,5.720000000000001,37.4,-32.952,79.408,131.976,94.832,75.512,43.432
43.992,62.24,19.584,-52.968,5.720000000000001,37.4,-32.952,79.408,131.976,94.832,75.512,43.432
44.992,63.24,19.584,-53.968,5.720000000000001,37.4,-32.952,79.408,131.976,95.832,75.512,43.432
44.992,63.24,19.584,-53.968,5.720000000000001,37.4,-32.952,81.408,134.976,103.832,80.512,43.432
44.992,63.24,19.584,-53.968,5.720000000000001,37.4,-32.952,83.408,136.976,107.832,84.512,45.432
44.992,63.24,19.584,-53.968,5.720000000000001,37.4,-32.952,83.408,138.976,109.832,85.512,48.432
44.992,63.24,19.584,-53.968,5.720000000000001,37.4,-32.952,83.408,139.976,111.832,87.512,51.432
47.992,65.24000000000001,19.584,-55.968,7.720000000000001,41.4,-32.952,85.408,146.976,115.832,94.512,54.432
48.992,68.24000000000001,20.584,-57.968,9.72,46.4,-32.952,87.408,152.976,120.832,100.512,56.432
48.992,70.24000000000001,22.584,-57.968,9.72,48.4,-32.952,87.408,152.976,122.832,100.512,56.432
48.992,73.24000000000001,23.584,-58.968,9.72,50.4,-32.952,88.408,154.976,126.832,102.512,57.432
50.992,76.24000000000001,23.584,-59.968,9.72,50.4,-32.952,90.408,157.976,131.832,105.512,58.432
52.992,80.24000000000001,23.584,-61.968,9.72,50.4,-32.952,91.408,160.976,136.832,108.512,60.432
52.992,80.24000000000001,23.584,-61.968,9.72,50.4,-32.952,96.408,163.976,139.832,111.512,62.432
52.992,81.24000000000001,23.584,-62.968,9.72,50.4,-33.952,100.408,165.976,140.832,113.512,64.432
55.992,83.24000000000001,23.584,-67.968,9.72,53.4,-35.952,100.408,168.976,140.832,113.512,64.432
56.992,85.24000000000001,25.584,-70.968,9.72,55.4,-36.952,102.408,172.976,142.832,116.512,66.432
56.992,87.24000000000001,29.584,-72.968,9.72,56.4,-36.952,105.408,177.976,146.832,121.512,70.432
56.992,88.24000000000001,32.584,-74.968,9.72,58.4,-36.952,108.408,182.976,149.832,125.512,73.432
61.992,91.24000000000001,32.584,-76.968,9.72,58.4,-39.952,108.408,184.976,154.832,125.512,73.432
64.99199999999999,92.24000000000001,32.584,-78.968,9.72,58.4,-40.952,109.408,188.976,158.832,125.512,73.432
64.99199999999999,92.24000000000001,32.584,-78.968,9.72,58.4,-40.952,111.408,193.976,161.832,125.512,73.432
65.99199999999999,95.24000000000001,33.584,-79.968,9.72,60.4,-40.952,112.408,196.976,163.832,126.512,73.432
67.99199999999999,98.24000000000001,35.584,-81.968,9.72,64.4,-40.952,112.408,200.976,164.832,128.512,73.432
69.99199999999999,102.24000000000001,36.584,-82.968,10.72,66.4,-41.952,113.408,203.976,166.832,129.512,73.432
71.99199999999999,107.24000000000001,36.584,-85.968,12.72,66.4,-43.952,115.408,205.976,171.832,129.512,73.432
74.99199999999999,111.24000000000001,37.584,-88.968,13.72,69.4,-45.952,117.408,208.976,175.832,129.512,73.432
75.99199999999999,114.24000000000001,38.584,-93.968,13.72,74.4,-47.952,117.408,209.976,177.832,129.512,73.432
77.99199999999999,117.24000000000001,40.584,-98.968,13.72,79.4,-49.952,117.408,211.976,178.832,129.512,73.432
77.99199999999999,120.24000000000001,42.584,-99.968,13.72,81.4,-49.952,121.408,213.976,185.832,132.512,77.432
77.99199999999999,123.24000000000001,45.584,-99.968,13.72,84.4,-50.952,126.408,216.976,192.832,134.512,82.432
77.99199999999999,125.24000000000001,47.584,-102.968,13.72,86.4,-55.952,131.40800000000002,221.976,194.832,137.512,84.432
78.99199999999999,128.24,49.584,-104.968,13.72,88.4,-58.952,133.40800000000002,225.976,196.832,139.512,85.432
80.99199999999999,131.24,49.584,-106.968,13.72,88.4,-60.952,133.40800000000002,229.976,198.832,140.512,85.432
81.99199999999999,135.24,49.584,-107.968,13.72,88.4,-61.952,133.40800000000002,232.976,199.832,142.512,85.432
81.99199999999999,137.24,51.584,-107.968,13.72,90.4,-61.952,138.40800000000002,239.976,209.832,147.512,88.432
82.99199999999999,140.24,53.584,-108.968,13.72,93.4,-62.952,143.40800000000002,246.976,217.832,151.512,90.432
84.99199999999999,142.24,53.584,-111.968,13.72,98.4,-65.952,145.40800000000002,248.976,220.832,154.512,90.432
87.99199999999999,145.24,55.584,-114.968,13.72,101.4,-68.952,148.40800000000002,252.976,223.832,156.512,91.432
91.99199999999999,148.24,58.584,-119.968,13.72,103.4,-71.952,151.40800000000002,257.976,226.832,157.512,92.432
94.99199999999999,152.24,61.584,-124.968,13.72,105.4,-74.952,155.40800000000002,262.976,229.832,159.512,94.432
94.99199999999999,154.24,64.584,-124.968,13.72,107.4,-74.952,160.40800000000002,269.976,239.832,164.512,102.432
95.99199999999999,157.24,66.584,-125.968,13.72,110.4,-77.952,164.40800000000002,277.976,248.832,169.512,107.432
97.99199999999999,162.24,66.584,-128.96800000000002,13.72,112.4,-84.952,166.40800000000002,284.976,256.832,174.512,110.432
99.99199999999999,166.24,67.584,-131.96800000000002,13.72,114.4,-88.952,168.40800000000002,289.976,262.832,178.512,112.432
101.99199999999999,170.24,68.584,-134.96800000000002,13.72,116.4,-90.952,170.40800000000002,293.976,267.832,181.512,113.432
103.99199999999999,173.24,70.584,-137.96800000000002,13.72,117.4,-91.952,172.40800000000002,296.976,272.832,185.512,115.432
105.99199999999999,175.24,70.584,-140.96800000000002,13.72,120.4,-94.952,177.40800000000002,301.976,279.832,190.512,118.432
107.99199999999999,179.24,70.584,-142.96800000000002,13.72,123.4,-96.952,181.40800000000002,307.976,287.832,195.512,120.432
109.99199999999999,184.24,72.584,-146.96800000000002,13.72,126.4,-98.952,184.40800000000002,313.976,296.832,200.512,124.432
111.99199999999999,189.24,74.584,-149.96800000000002,13.72,129.4,-99.952,188.40800000000002,320.976,304.832,205.512,127.432
117.99199999999999,196.24,76.584,-156.96800000000002,13.72,134.4,-99.952,193.40800000000002,327.976,311.832,212.512,134.432
124.99199999999999,203.24,79.584,-163.96800000000002,13.72,139.4,-100.952,198.40800000000002,335.976,320.832,220.512,141.432
126.99199999999999,208.24,81.584,-165.96800000000002,13.72,144.4,-102.952,205.40800000000002,345.976,332.832,230.512,146.432
128.992,214.24,85.584,-169.96800000000002,13.72,149.4,-105.952,210.40800000000002,352.976,341.832,237.512,149.432
130.992,220.24,90.584,-174.96800000000002,13.72,154.4,-109.952,212.40800000000002,355.976,346.832,240.512,151.432
132.992,227.24,95.584,-179.96800000000002,13.72,159.4,-112.952,213.40800000000002,359.976,351.832,243.512,153.432
134.992,232.24,97.584,-184.96800000000002,13.72,164.4,-114.952,218.40800000000002,368.976,361.832,248.512,160.432
138.992,238.24,100.584,-189.96800000000002,13.72,169.4,-117.952,224.40800000000002,379.976,371.832,254.512,167.432
145.992,248.24,102.584,-194.96800000000002,13.72,174.4,-119.952,231.40800000000002,391.976,384.832,264.512,172.432
150.992,255.24,104.584,-199.96800000000002,13.72,178.4,-121.952,236.40800000000002,400.976,394.832,272.512,176.432
151.992,258.24,106.584,-204.96800000000002,13.72,181.4,-123.952,240.40800000000002,407.976,402.832,279.512,179.432
153.992,261.24,108.584,-209.96800000000002,13.72,185.4,-125.952,243.40800000000002,414.976,411.832,286.512,182.432
156.992,271.24,115.584,-214.96800000000002,13.72,192.4,-130.952,246.40800000000002,421.976,421.832,291.512,187.432
159.992,280.24,121.584,-219.96800000000002,13.72,199.4,-133.952,250.40800000000002,429.976,432.832,298.512,193.432
164.992,288.24,124.584,-224.96800000000002,13.72,204.4,-133.952,260.408,439.976,447.832,310.512,201.432
169.992,295.24,126.584,-230.96800000000002,15.72,209.4,-136.952,265.408,448.976,458.832,318.512,206.432
174.992,302.24,127.584,-236.96800000000002,18.72,214.4,-141.952,267.408,457.976,466.832,323.512,209.432
179.992,308.24,129.584,-243.96800000000002,21.72,219.4,-146.952,269.408,465.976,475.832,329.512,213.432
181.992,316.24,134.584,-248.96800000000002,21.72,224.4,-149.952,277.408,478.976,490.832,341.512,220.432
184.992,324.24,139.584,-254.96800000000002,21.72,230.4,-152.952,284.408,488.976,505.832,352.512,227.432
189.992,334.24,144.584,-261.968,21.72,237.4,-157.952,291.408,496.976,520.832,359.512,232.432
192.992,342.24,148.584,-266.968,21.72,243.4,-161.952,297.408,504.976,531.832,367.512,238.432
194.992,348.24,151.584,-269.968,21.72,248.4,-164.952,302.408,512.976,541.832,376.512,244.432
196.992,355.24,155.584,-273.968,21.72,253.4,-168.952,308.408,521.976,552.832,384.512,251.432
204.992,363.24,157.584,-283.968,21.72,258.4,-173.952,315.408,534.976,567.832,394.512,256.432
210.992,370.24,158.584,-291.968,22.72,262.4,-177.952,321.408,544.976,580.832,403.512,261.432
215.992,376.24,158.584,-296.968,23.72,265.4,-180.952,326.408,552.976,592.832,409.512,268.432
220.992,383.24,158.584,-301.968,25.72,269.4,-184.952,331.408,561.976,604.832,416.512,275.432
227.992,390.24,161.584,-306.968,27.72,274.4,-186.952,339.408,570.976,618.832,426.512,280.432
234.992,398.24,164.584,-312.968,29.72,280.4,-189.952,346.408,581.976,633.832,436.512,286.432
236.992,408.24,172.584,-319.968,29.72,290.4,-194.952,354.408,593.976,648.832,448.512,296.432
239.992,416.24,176.584,-325.968,29.72,296.4,-198.952,359.408,603.976,660.832,457.512,302.432
242.992,421.24,178.584,-330.968,29.72,299.4,-202.952,362.408,609.976,670.832,462.512,306.432
246.992,426.24,179.584,-335.968,29.72,303.4,-205.952,365.408,616.976,680.832,467.512,309.432
253.992,438.24,184.584,-345.968,29.72,310.4,-210.952,370.408,624.976,693.832,477.512,314.432
259.992,449.24,190.584,-354.968,29.72,318.4,-215.952,376.408,632.976,706.832,488.512,320.432
262.992,457.24,198.584,-359.968,29.72,325.4,-220.952,384.408,642.976,721.832,500.512,327.432
264.992,464.24,203.584,-364.968,29.72,331.4,-222.952,390.408,649.976,733.832,509.512,333.432
265.992,470.24,206.584,-368.968,29.72,336.4,-222.952,395.408,654.976,743.832,516.512,338.432
267.992,477.24,209.584,-373.968,29.72,341.4,-222.952,399.408,659.976,753.832,522.512,343.432
272.992,487.24,212.584,-378.968,29.72,349.4,-227.952,402.408,661.976,763.832,530.512,345.432
276.992,496.24,216.584,-383.968,29.72,355.4,-231.952,404.408,666.976,772.832,537.512,351.432
279.992,504.24,223.584,-388.968,29.72,360.4,-234.952,407.408,676.976,779.832,545.512,361.432
282.992,510.24,228.584,-393.968,28.72,366.4,-237.952,409.408,681.976,786.832,551.512,364.432
285.992,517.24,231.584,-398.968,27.72,373.4,-240.952,410.408,682.976,793.832,555.512,364.432
288.992,524.24,235.584,-403.968,25.72,379.4,-244.952,412.408,684.976,799.832,560.512,364.432
291.992,528.24,237.584,-408.968,25.72,382.4,-249.952,415.408,687.976,804.832,563.512,369.432
292.992,533.24,240.584,-412.968,24.72,384.4,-252.952,417.408,690.976,810.832,566.512,373.432
292.992,536.24,243.584,-414.968,23.72,388.4,-254.952,418.408,695.976,817.832,571.512,375.432
292.992,539.24,247.584,-415.968,21.72,391.4,-255.952,420.408,700.976,823.832,576.512,376.432
294.992,546.24,251.584,-418.968,21.72,398.4,-256.952,425.408,703.976,828.832,579.512,383.432
297.992,553.24,255.584,-421.968,21.72,404.4,-256.952,429.408,705.976,834.832,582.512,390.432
299.992,555.24,255.584,-426.968,21.72,404.4,-259.952,429.408,708.976,841.832,590.512,392.432
302.992,558.24,256.584,-430.968,21.72,406.4,-261.952,429.408,710.976,847.832,594.512,393.432
303.992,562.24,258.584,-433.968,21.72,409.4,-262.952,429.408,712.976,850.832,596.512,393.432
305.992,565.24,260.584,-436.968,21.72,412.4,-264.952,429.408,713.976,853.832,598.512,393.432
305.992,567.24,262.584,-436.968,21.72,415.4,-264.952,431.408,713.976,858.832,600.512,396.432
306.992,569.24,264.584,-437.968,21.72,417.4,-265.952,433.408,713.976,863.832,603.512,398.432
311.992,569.24,264.584,-440.968,21.72,417.4,-267.952,433.408,713.976,865.832,605.512,398.432
313.992,571.24,264.584,-441.968,21.72,417.4,-270.952,433.408,713.976,868.832,607.512,399.432
313.992,575.24,264.584,-441.968,21.72,417.4,-273.952,433.408,713.976,871.832,609.512,400.432
313.992,578.24,264.584,-441.968,21.72,417.4,-277.952,433.408,713.976,875.832,610.512,402.432
313.992,578.24,264.584,-441.968,21.72,417.4,-277.952,433.408,713.976,875.832,610.512,402.432
313.992,578.24,264.584,-441.968,21.72,417.4,-277.952,432.408,712.976,875.832,610.512,402.432
313.992,578.24,264.584,-441.968,21.72,417.4,-277.952,430.408,710.976,875.832,610.512,402.432
313.992,578.24,264.584,-441.968,21.72,417.4,-277.952,429.408,709.976,875.832,610.512,404.432
313.992,578.24,264.584,-441.968,21.72,417.4,-277.952,429.408,709.976,875.832,610.512,407.432
313.992,578.24,264.584,-441.968,21.72,417.4,-277.952,428.408,709.976,874.832,610.512,410.432
313.992,578.24,264.584,-441.968,21.72,417.4,-277.952,423.408,706.976,869.832,605.512,405.432
312.992,576.24,264.584,-440.968,21.72,416.4,-275.952,420.408,704.976,865.832,601.512,401.432
309.992,571.24,264.584,-438.968,21.72,414.4,-270.952,420.408,702.976,861.832,600.512,399.432
305.992,566.24,264.584,-437.968,21.72,413.4,-265.952,420.408,701.976,858.832,598.512,398.432
301.992,561.24,264.584,-432.968,17.72,410.4,-264.952,418.408,694.976,851.832,589.512,393.432
296.992,556.24,263.584,-427.968,13.72,408.4,-264.952,415.408,687.976,843.832,580.512,388.432
294.992,551.24,261.584,-419.968,13.72,405.4,-261.952,410.408,679.976,833.832,572.512,380.432
291.992,545.24,257.584,-414.968,13.72,401.4,-259.952,406.408,672.976,824.832,565.512,375.432
290.992,538.24,252.584,-410.968,13.72,394.4,-257.952,403.408,665.976,816.832,558.512,372.432
288.992,532.24,247.584,-407.968,13.72,388.4,-256.952,399.408,659.976,808.832,552.512,368.432
281.992,522.24,245.584,-402.968,13.72,382.4,-249.952,395.408,654.976,798.832,544.512,361.432
274.992,513.24,242.584,-396.968,13.72,377.4,-242.952,390.408,647.976,786.832,536.512,354.432
269.992,505.24,240.584,-386.968,13.72,369.4,-237.952,388.408,638.976,772.832,523.512,346.432
263.992,498.24,239.584,-378.968,12.72,365.4,-232.952,385.408,630.976,758.832,512.512,340.432
257.992,491.24,239.584,-371.968,8.72,363.4,-227.952,381.408,625.976,747.832,502.512,335.432
250.992,485.24,238.584,-365.968,5.720000000000001,362.4,-222.952,378.408,620.976,735.832,492.512,330.432
245.992,475.24,234.584,-357.968,5.720000000000001,354.4,-214.952,371.408,610.976,715.832,480.512,320.432
238.992,463.24,228.584,-348.968,5.720000000000001,345.4,-207.952,363.408,600.976,695.832,467.512,309.432
228.992,448.24,220.584,-336.968,5.720000000000001,333.4,-199.952,356.408,590.976,675.832,455.512,297.432
223.992,437.24,215.584,-328.968,5.720000000000001,324.4,-193.952,351.408,580.976,660.832,444.512,288.432
219.992,429.24,212.584,-323.968,5.720000000000001,317.4,-188.952,347.408,570.976,646.832,434.512,281.432
216.992,420.24,209.584,-317.968,5.720000000000001,311.4,-183.952,344.408,560.976,633.832,424.512,275.432
208.992,405.24,204.584,-305.968,2.7200000000000006,303.4,-173.952,339.408,551.976,615.832,411.512,267.432
202.992,393.24,199.584,-295.968,1.7200000000000006,296.4,-165.952,334.408,541.976,600.832,400.512,260.432
197.992,385.24,194.584,-288.968,1.7200000000000006,289.4,-160.952,329.408,531.976,588.832,390.512,253.432
192.992,376.24,189.584,-281.968,1.7200000000000006,283.4,-155.952,324.408,521.976,577.832,380.512,247.432
187.992,367.24,184.584,-274.968,1.7200000000000006,275.4,-150.952,315.408,506.976,560.832,366.512,237.432
181.992,356.24,179.584,-266.968,0.7200000000000006,267.4,-144.952,305.408,492.976,542.832,351.512,227.432
171.992,344.24,177.584,-256.968,-1.2799999999999994,257.4,-134.952,298.408,477.976,520.832,339.512,217.432
163.992,333.24,175.584,-248.96800000000002,-4.279999999999999,251.4,-127.952,291.408,465.976,503.832,329.512,210.432
158.992,325.24,173.584,-241.96800000000002,-7.279999999999999,247.4,-122.952,284.408,459.976,493.832,322.512,207.432
153.992,317.24,171.584,-234.96800000000002,-11.28,244.4,-117.952,277.408,452.976,483.832,316.512,204.432
146.992,307.24,164.584,-225.96800000000002,-11.28,235.4,-109.952,270.408,438.976,466.832,304.512,197.432
139.992,296.24,157.584,-215.96800000000002,-11.28,225.4,-103.952,263.408,424.976,449.832,292.512,189.432
134.992,284.24,152.584,-208.96800000000002,-11.28,218.4,-98.952,255.40800000000002,411.976,434.832,282.512,182.432
130.992,274.24,147.584,-201.96800000000002,-11.28,211.4,-92.952,250.40800000000002,400.976,423.832,274.512,176.432
127.99199999999999,265.24,142.584,-194.96800000000002,-11.28,204.4,-85.952,246.40800000000002,390.976,415.832,267.512,173.432
123.99199999999999,257.24,137.584,-188.96800000000002,-11.28,197.4,-78.952,243.40800000000002,380.976,406.832,260.512,170.432
116.99199999999999,250.24,135.584,-183.96800000000002,-11.28,192.4,-78.952,231.40800000000002,365.976,386.832,248.512,160.432
110.99199999999999,241.24,131.584,-176.96800000000002,-11.28,185.4,-77.952,221.40800000000002,351.976,369.832,236.512,151.432
108.99199999999999,228.24,123.584,-166.96800000000002,-11.28,173.4,-72.952,216.40800000000002,338.976,356.832,226.512,146.432
105.99199999999999,219.24,119.584,-160.96800000000002,-11.28,166.4,-69.952,210.40800000000002,329.976,346.832,219.512,142.432
101.99199999999999,213.24,118.584,-157.96800000000002,-11.28,162.4,-67.952,203.40800000000002,323.976,338.832,214.512,139.432
98.99199999999999,206.24,116.584,-153.96800000000002,-11.28,159.4,-66.952,196.40800000000002,316.976,329.832,209.512,135.432
95.99199999999999,198.24,108.584,-146.96800000000002,-11.28,151.4,-63.952,189.40800000000002,301.976,314.832,196.512,125.432
92.99199999999999,191.24,103.584,-139.96800000000002,-11.28,145.4,-61.952,182.40800000000002,288.976,302.832,187.512,118.432
87.99199999999999,185.24,101.584,-134.96800000000002,-11.28,142.4,-59.952,177.40800000000002,280.976,294.832,184.512,115.432
82.99199999999999,178.24,100.584,-129.96800000000002,-11.28,139.4,-58.952,172.40800000000002,272.976,285.832,181.512,111.432
77.99199999999999,173.24,99.584,-122.968,-13.28,136.4,-57.952,165.40800000000002,260.976,276.832,172.512,104.432
72.99199999999999,167.24,99.584,-115.968,-15.28,133.4,-57.952,157.40800000000002,247.976,265.832,162.512,97.432
70.99199999999999,157.24,94.584,-110.968,-15.28,123.4,-57.952,147.40800000000002,232.976,253.832,155.512,92.432
68.99199999999999,149.24,89.584,-106.968,-15.28,116.4,-55.952,140.40800000000002,222.976,242.832,149.512,89.432
66.99199999999999,144.24,84.584,-103.968,-15.28,112.4,-50.952,137.40800000000002,217.976,234.832,146.512,87.432
65.99199999999999,139.24,79.584,-99.968,-15.28,109.4,-45.952,134.40800000000002,212.976,226.832,142.512,86.432
60.992,132.24,76.584,-97.968,-15.28,104.4,-45.952,129.40800000000002,202.976,214.832,138.512,83.432
55.992,125.24000000000001,74.584,-93.968,-15.28,99.4,-44.952,123.408,192.976,202.832,133.512,80.432
53.992,120.24000000000001,71.584,-86.968,-15.28,94.4,-42.952,113.408,182.976,195.832,128.512,72.432
51.992,117.24000000000001,70.584,-81.968,-15.28,91.4,-40.952,105.408,173.976,187.832,122.512,67.432
49.992,115.24000000000001,70.584,-80.968,-15.28,89.4,-40.952,98.408,165.976,179.832,115.512,63.432
48.992,114.24000000000001,70.584,-78.968,-15.28,88.4,-40.952,91.408,157.976,170.832,109.512,60.432
46.992,106.24000000000001,67.584,-75.968,-15.28,85.4,-40.952,86.408,147.976,163.832,104.512,55.432
44.992,100.24000000000001,65.584,-72.968,-15.28,82.4,-40.952,82.408,137.976,155.832,98.512,50.432
41.992,95.24000000000001,62.584,-64.968,-15.28,77.4,-40.952,80.408,130.976,145.832,90.512,45.432
38.992,92.24000000000001,61.584,-60.968,-15.28,75.4,-40.952,77.408,124.976,139.832,86.512,43.432
35.992,90.24000000000001,61.584,-58.968,-15.28,75.4,-40.952,73.408,119.976,135.832,85.512,43.432
32.992,88.24000000000001,61.584,-57.968,-15.28,75.4,-40.952,70.408,114.976,132.832,83.512,43.432
29.991999999999997,83.24000000000001,56.584,-54.968,-15.28,67.4,-40.952,65.408,109.976,127.832,83.512,41.432
27.991999999999997,79.24000000000001,52.584,-53.968,-15.28,62.4,-40.952,61.408,105.976,122.832,82.512,38.432
27.991999999999997,75.24000000000001,51.584,-51.968,-15.28,60.4,-40.952,57.408,101.976,117.832,79.512,37.432
27.991999999999997,72.24000000000001,49.584,-50.968,-15.28,58.4,-40.952,54.408,98.976,112.832,75.512,35.432
25.991999999999997,69.24000000000001,49.584,-47.968,-15.28,58.4,-40.952,51.408,91.976,109.832,73.512,35.432
23.991999999999997,67.24000000000001,48.584,-45.968,-15.28,58.4,-40.952,49.408,84.976,106.832,70.512,34.432
23.991999999999997,64.24000000000001,46.584,-45.968,-15.28,55.4,-40.952,46.408,79.976,98.832,68.512,32.432
23.991999999999997,62.24,44.584,-44.968,-15.28,53.4,-40.952,43.408,75.976,93.832,66.512,31.432
23.991999999999997,61.24,42.584,-43.968,-15.28,51.4,-40.952,40.408,74.976,92.832,66.512,31.432
23.991999999999997,59.24,40.584,-41.968,-15.28,50.4,-40.952,37.408,72.976,90.832,66.512,31.432
21.991999999999997,59.24,40.584,-41.968,-15.28,50.4,-40.952,34.408,65.976,85.832,60.512,31.432
19.991999999999997,58.24,40.584,-40.968,-15.28,49.4,-40.952,32.408,59.976,80.832,54.512,31.432
19.991999999999997,56.24,40.584,-35.968,-15.28,47.4,-40.952,29.408,56.976,73.832,52.512,29.432
19.991999999999997,54.24,39.584,-32.968,-15.28,44.4,-40.952,28.408,55.976,69.832,50.512,27.432
19.991999999999997,51.24,38.584,-32.968,-15.28,40.4,-38.952,28.408,55.976,69.832,50.512,27.432
19.991999999999997,47.24,36.584,-32.968,-15.28,37.4,-36.952,28.408,55.976,69.832,50.512,27.432
17.991999999999997,47.24,36.584,-30.968000000000004,-15.28,37.4,-36.952,26.408,50.976,66.832,50.512,27.432
15.991999999999997,46.24,36.584,-28.968000000000004,-15.28,37.4,-36.952,23.408,46.976,64.832,50.512,26.432
15.991999999999997,44.24,36.584,-28.968000000000004,-15.28,37.4,-36.952,21.408,43.976,61.832,47.512,21.432
14.991999999999997,42.24,36.584,-27.968000000000004,-15.28,36.4,-35.952,19.408,41.976,59.832,45.512,19.432
12.991999999999997,40.24,36.584,-26.968000000000004,-15.28,34.4,-34.952,19.408,40.976,58.832,43.512,19.432
11.991999999999997,39.24,36.584,-24.968000000000004,-15.28,33.4,-32.952,19.408,38.976,56.832,42.512,19.432
11.991999999999997,36.24,34.584,-21.968000000000004,-15.28,30.4,-32.952,17.408,33.976,54.832,42.512,19.432
9.991999999999997,34.24,32.584,-20.968000000000004,-15.28,29.4,-32.952,14.408000000000001,29.976,52.832,42.512,19.432
4.991999999999997,34.24,32.584,-20.968000000000004,-15.28,29.4,-32.952,9.408000000000001,26.976,52.832,42.512,19.432
2.9919999999999973,33.24,32.584,-19.968000000000004,-15.28,29.4,-32.952,6.408000000000001,24.976,51.832,40.512,19.432
2.9919999999999973,32.24,32.584,-17.968000000000004,-15.28,29.4,-32.952,4.408000000000001,23.976,49.832,36.512,19.432
2.9919999999999973,30.240000000000002,31.584,-16.968000000000004,-15.28,29.4,-32.952,3.4080000000000013,21.976,47.832,33.512,19.432
2.9919999999999973,27.240000000000002,26.584,-16.968000000000004,-15.28,27.4,-32.952,3.4080000000000013,19.976,42.832,31.512,16.432
2.9919999999999973,26.240000000000002,23.584,-16.968000000000004,-15.28,25.4,-32.952,2.4080000000000013,16.976,39.832,29.512,15.431999999999999
2.9919999999999973,26.240000000000002,23.584,-16.968000000000004,-15.28,25.4,-32.952,0.40800000000000125,15.976,39.832,29.512,15.431999999999999
2.9919999999999973,26.240000000000002,23.584,-16.968000000000004,-15.28,25.4,-32.952,-0.5919999999999987,13.976,39.832,29.512,15.431999999999999
2.9919999999999973,26.240000000000002,23.584,-16.968000000000004,-15.28,25.4,-32.952,-1.5919999999999987,13.976,37.832,29.512,13.431999999999999
2.9919999999999973,26.240000000000002,23.584,-15.968000000000004,-15.28,25.4,-31.952,-1.5919999999999987,13.976,35.832,29.512,10.431999999999999
-0.008000000000002672,26.240000000000002,23.584,-10.968000000000004,-15.28,25.4,-26.952,-1.5919999999999987,13.976,35.832,29.512,10.431999999999999
-1.0080000000000027,24.240000000000002,23.584,-7.9680000000000035,-15.28,25.4,-24.952,-1.5919999999999987,13.976,34.832,28.512,10.431999999999999
-1.0080000000000027,21.240000000000002,23.584,-7.9680000000000035,-15.28,23.4,-24.952,-1.5919999999999987,13.976,33.832,27.512,10.431999999999999
-1.0080000000000027,18.240000000000002,23.584,-7.9680000000000035,-15.28,21.4,-24.952,-1.5919999999999987,13.976,31.832,25.512,10.431999999999999
-1.0080000000000027,18.240000000000002,23.584,-7.9680000000000035,-15.28,21.4,-24.952,-1.5919999999999987,11.976,28.832,25.512,10.431999999999999
-1.0080000000000027,18.240000000000002,23.584,-7.9680000000000035,-15.28,21.4,-24.952,-1.5919999999999987,9.976,27.832,25.512,10.431999999999999
-1.0080000000000027,18.240000000000002,23.584,-7.9680000000000035,-15.28,21.4,-24.952,-1.5919999999999987,9.976,27.832,25.512,10.431999999999999
-1.0080000000000027,18.240000000000002,23.584,-7.9680000000000035,-15.28,21.4,-24.952,-1.5919999999999987,9.976,27.832,25.512,10.431999999999999
-1.0080000000000027,18.240000000000002,23.584,-7.9680000000000035,-15.28,21.4,-24.952,-1.5919999999999987,9.976,27.832,25.512,10.431999999999999
-1.0080000000000027,18.240000000000002,23.584,-7.9680000000000035,-15.28,21.4,-24.952,-1.5919999999999987,9.976,27.832,25.512,10.431999999999999
-1.0080000000000027,18.240000000000002,23.584,-7.9680000000000035,-15.28,21.4,-24.952,-1.5919999999999987,9.976,27.832,22.512,10.431999999999999
-1.0080000000000027,18.240000000000002,23.584,-7.9680000000000035,-15.28,21.4,-24.952,-1.5919999999999987,9.976,27.832,21.512,10.431999999999999
-1.0080000000000027,18.240000000000002,23.584,-7.9680000000000035,-15.28,21.4,-24.952,-1.5919999999999987,9.976,27.832,21.512,10.431999999999999
-1.0080000000000027,18.240000000000002,23.584,-7.9680000000000035,-15.28,21.4,-24.952,-1.5919999999999987,7.976000000000001,26.832,21.512,10.431999999999999
-1.0080000000000027,18.240000000000002,23.584,-7.9680000000000035,-15.28,21.4,-24.952,-1.5919999999999987,3.976000000000001,25.832,21.512,10.431999999999999
-1.0080000000000027,18.240000000000002,23.584,-7.9680000000000035,-15.28,21.4,-24.952,-1.5919999999999987,0.9760000000000009,23.832,21.512,10.431999999999999
-1.0080000000000027,18.240000000000002,23.584,-7.9680000000000035,-15.28,21.4,-24.952,-1.5919999999999987,0.9760000000000009,23.832,21.512,10.431999999999999
-1.0080000000000027,18.240000000000002,23.584,-7.9680000000000035,-15.28,21.4,-24.952,-1.5919999999999987,0.9760000000000009,23.832,21.512,10.431999999999999
-1.0080000000000027,18.240000000000002,23.584,-7.9680000000000035,-15.28,21.4,-24.952,-1.5919999999999987,0.9760000000000009,23.832,21.512,10.431999999999999
-1.0080000000000027,18.240000000000002,23.584,-7.9680000000000035,-15.28,21.4,-24.952,-1.5919999999999987,0.9760000000000009,23.832,21.512,10.431999999999999
-1.0080000000000027,18.240000000000002,23.584,-7.9680000000000035,-15.28,21.4,-24.952,-1.5919999999999987,0.9760000000000009,23.832,21.512,10.431999999999999
-1.0080000000000027,18.240000000000002,23.584,-7.9680000000000035,-15.28,21.4,-24.952,-1.5919999999999987,0.9760000000000009,23.832,21.512,10.431999999999999
-1.0080000000000027,18.240000000000002,23.584,-7.9680000000000035,-15.28,21.4,-24.952,-1.5919999999999987,0.9760000000000009,23.832,21.512,10.431999999999999
-1.0080000000000027,18.240000000000002,23.584,-7.9680000000000035,-15.28,21.4,-24.952,-1.5919999999999987,2.976000000000001,23.832,21.512,10.431999999999999
-1.0080000000000027,18.240000000000002,23.584,-7.9680000000000035,-15.28,21.4,-24.952,-1.5919999999999987,5.976000000000001,23.832,23.512,10.431999999999999
-1.0080000000000027,18.240000000000002,23.584,-7.9680000000000035,-15.28,21.4,-24.952,-1.5919999999999987,8.976,23.832,25.512,10.431999999999999
-1.0080000000000027,18.240000000000002,23.584,-7.9680000000000035,-15.28,21.4,-24.952,-1.5919999999999987,9.976,23.832,25.512,10.431999999999999
-1.0080000000000027,18.240000000000002,23.584,-7.9680000000000035,-15.28,21.4,-24.952,-1.5919999999999987,9.976,23.832,25.512,10.431999999999999
-1.0080000000000027,18.240000000000002,23.584,-7.9680000000000035,-15.28,21.4,-22.952,-1.5919999999999987,12.976,23.832,25.512,10.431999999999999
-1.0080000000000027,18.240000000000002,23.584,-7.9680000000000035,-15.28,21.4,-20.952,-1.5919999999999987,13.976,24.832,25.512,10.431999999999999
-1.0080000000000027,18.240000000000002,21.584,-7.9680000000000035,-15.28,21.4,-20.952,-1.5919999999999987,13.976,26.832,25.512,10.431999999999999
-1.0080000000000027,18.240000000000002,19.584,-7.9680000000000035,-15.28,21.4,-20.952,-1.5919999999999987,13.976,27.832,25.512,10.431999999999999
-1.0080000000000027,18.240000000000002,19.584,-7.9680000000000035,-15.28,21.4,-20.952,1.4080000000000013,15.976,27.832,25.512,13.431999999999999
-1.0080000000000027,18.240000000000002,19.584,-7.9680000000000035,-15.28,21.4,-20.952,3.4080000000000013,17.976,27.832,25.512,15.431999999999999
-1.0080000000000027,18.240000000000002,19.584,-7.9680000000000035,-15.28,21.4,-20.952,3.4080000000000013,17.976,27.832,25.512,15.431999999999999
-1.0080000000000027,17.240000000000002,18.584,-7.9680000000000035,-14.28,19.4,-20.952,3.4080000000000013,17.976,27.832,25.512,15.431999999999999
-1.0080000000000027,15.240000000000002,17.584,-7.9680000000000035,-12.28,16.4,-20.952,3.4080000000000013,17.976,27.832,25.512,15.431999999999999
-1.0080000000000027,13.240000000000002,15.584,-7.9680000000000035,-11.28,13.399999999999999,-20.952,3.4080000000000013,17.976,27.832,25.512,15.431999999999999
-1.0080000000000027,13.240000000000002,15.584,-4.9680000000000035,-11.28,13.399999999999999,-20.952,3.4080000000000013,17.976,27.832,25.512,15.431999999999999
-1.0080000000000027,13.240000000000002,15.584,-3.9680000000000035,-11.28,13.399999999999999,-20.952,3.4080000000000013,17.976,27.832,25.512,15.431999999999999
-1.0080000000000027,13.240000000000002,15.584,-3.9680000000000035,-11.28,13.399999999999999,-20.952,3.4080000000000013,17.976,27.832,25.512,15.431999999999999
-1.0080000000000027,13.240000000000002,15.584,-3.9680000000000035,-11.28,13.399999999999999,-20.952,3.4080000000000013,17.976,27.832,25.512,15.431999999999999
-1.0080000000000027,13.240000000000002,15.584,-3.9680000000000035,-11.28,13.399999999999999,-20.952,5.408000000000001,19.976,27.832,25.512,15.431999999999999
-1.0080000000000027,13.240000000000002,15.584,-3.9680000000000035,-11.28,13.399999999999999,-20.952,7.408000000000001,21.976,27.832,25.512,15.431999999999999
-1.0080000000000027,13.240000000000002,18.584,-3.9680000000000035,-14.28,13.399999999999999,-20.952,7.408000000000001,21.976,27.832,25.512,15.431999999999999
-1.0080000000000027,13.240000000000002,19.584,-3.9680000000000035,-15.28,13.399999999999999,-20.952,7.408000000000001,21.976,27.832,25.512,15.431999999999999
-1.0080000000000027,13.240000000000002,19.584,-3.9680000000000035,-15.28,13.399999999999999,-20.952,7.408000000000001,21.976,27.832,25.512,15.431999999999999
-1.0080000000000027,13.240000000000002,19.584,-3.9680000000000035,-15.28,13.399999999999999,-20.952,7.408000000000001,21.976,27.832,25.512,15.431999999999999
-1.0080000000000027,13.240000000000002,19.584,-3.9680000000000035,-15.28,13.399999999999999,-18.952,11.408000000000001,21.976,27.832,25.512,15.431999999999999
-1.0080000000000027,13.240000000000002,19.584,-3.9680000000000035,-15.28,13.399999999999999,-16.952,15.408000000000001,21.976,27.832,25.512,15.431999999999999
-1.0080000000000027,13.240000000000002,19.584,-3.9680000000000035,-15.28,13.399999999999999,-16.952,15.408000000000001,21.976,27.832,25.512,15.431999999999999
-1.0080000000000027,13.240000000000002,19.584,-3.9680000000000035,-15.28,13.399999999999999,-16.952,15.408000000000001,21.976,27.832,25.512,15.431999999999999
-1.0080000000000027,13.240000000000002,19.584,-3.9680000000000035,-15.28,13.399999999999999,-16.952,15.408000000000001,21.976,27.832,25.512,15.431999999999999
-1.0080000000000027,13.240000000000002,19.584,-3.9680000000000035,-15.28,13.399999999999999,-16.952,15.408000000000001,21.976,27.832,25.512,15.431999999999999
-1.0080000000000027,13.240000000000002,19.584,-3.9680000000000035,-15.28,13.399999999999999,-18.952,15.408000000000001,21.976,27.832,25.512,15.431999999999999
-1.0080000000000027,13.240000000000002,19.584,-3.9680000000000035,-15.28,13.399999999999999,-20.952,15.408000000000001,22.976,27.832,25.512,15.431999999999999
-1.0080000000000027,13.240000000000002,19.584,-3.9680000000000035,-15.28,13.399999999999999,-20.952,15.408000000000001,24.976,27.832,25.512,15.431999999999999
-1.0080000000000027,13.240000000000002,19.584,-3.9680000000000035,-15.28,13.399999999999999,-20.952,15.408000000000001,25.976,27.832,25.512,15.431999999999999
-1.0080000000000027,13.240000000000002,19.584,-3.9680000000000035,-15.28,13.399999999999999,-20.952,15.408000000000001,25.976,27.832,25.512,15.431999999999999
-1.0080000000000027,13.240000000000002,19.584,-3.9680000000000035,-15.28,13.399999999999999,-20.952,15.408000000000001,25.976,27.832,25.512,15.431999999999999
-1.0080000000000027,13.240000000000002,19.584,-3.9680000000000035,-15.28,13.399999999999999,-20.952,18.408,25.976,29.832,27.512,15.431999999999999
-1.0080000000000027,13.240000000000002,18.584,-3.9680000000000035,-13.28,12.399999999999999,-20.952,19.408,26.976,31.832,29.512,15.431999999999999
0.9919999999999973,13.240000000000002,15.584,-3.9680000000000035,-8.28,10.399999999999999,-20.952,19.408,28.976,31.832,29.512,15.431999999999999
2.9919999999999973,13.240000000000002,11.584,-3.9680000000000035,-3.2799999999999994,9.399999999999999,-20.952,19.408,29.976,31.832,29.512,15.431999999999999
2.9919999999999973,13.240000000000002,11.584,-3.9680000000000035,-2.2799999999999994,8.399999999999999,-20.952,19.408,30.976,31.832,29.512,15.431999999999999
2.9919999999999973,13.240000000000002,11.584,-3.9680000000000035,-2.2799999999999994,8.399999999999999,-20.952,19.408,30.976,31.832,29.512,15.431999999999999
2.9919999999999973,13.240000000000002,11.584,-3.9680000000000035,-2.2799999999999994,8.399999999999999,-20.952,19.408,30.976,31.832,29.512,15.431999999999999
2.9919999999999973,13.240000000000002,11.584,-3.9680000000000035,-2.2799999999999994,8.399999999999999,-20.952,19.408,30.976,31.832,29.512,15.431999999999999
2.9919999999999973,13.240000000000002,11.584,-3.9680000000000035,-2.2799999999999994,8.399999999999999,-20.952,19.408,30.976,31.832,29.512,17.432
2.9919999999999973,13.240000000000002,11.584,-3.9680000000000035,-2.2799999999999994,8.399999999999999,-20.952,19.408,30.976,31.832,29.512,19.432
2.9919999999999973,13.240000000000002,11.584,-5.9680000000000035,-2.2799999999999994,8.399999999999999,-20.952,19.408,30.976,31.832,29.512,19.432
2.9919999999999973,13.240000000000002,11.584,-7.9680000000000035,-2.2799999999999994,8.399999999999999,-20.952,19.408,30.976,31.832,29.512,19.432
2.9919999999999973,13.240000000000002,11.584,-7.9680000000000035,-2.2799999999999994,8.399999999999999,-20.952,19.408,30.976,31.832,29.512,19.432
2.9919999999999973,13.240000000000002,11.584,-7.9680000000000035,-2.2799999999999994,8.399999999999999,-20.952,19.408,30.976,31.832,29.512,19.432
2.9919999999999973,13.240000000000002,11.584,-7.9680000000000035,-2.2799999999999994,8.399999999999999,-20.952,19.408,30.976,31.832,29.512,19.432
2.9919999999999973,13.240000000000002,11.584,-7.9680000000000035,-2.2799999999999994,8.399999999999999,-20.952,19.408,30.976,31.832,29.512,19.432
2.9919999999999973,13.240000000000002,11.584,-7.9680000000000035,-2.2799999999999994,8.399999999999999,-20.952,19.408,30.976,31.832,29.512,19.432
2.9919999999999973,13.240000000000002,11.584,-7.9680000000000035,-2.2799999999999994,8.399999999999999,-20.952,19.408,30.976,31.832,29.512,19.432
2.9919999999999973,13.240000000000002,11.584,-7.9680000000000035,-2.2799999999999994,8.399999999999999,-20.952,19.408,30.976,31.832,29.512,19.432
2.9919999999999973,14.240000000000002,12.584,-7.9680000000000035,-2.2799999999999994,9.399999999999999,-20.952,19.408,30.976,31.832,29.512,19.432
2.9919999999999973,16.240000000000002,13.584,-7.9680000000000035,-2.2799999999999994,11.399999999999999,-20.952,19.408,30.976,31.832,29.512,19.432
2.9919999999999973,18.240000000000002,15.584,-7.9680000000000035,-2.2799999999999994,13.399999999999999,-20.952,19.408,30.976,31.832,29.512,19.432
7.991999999999997,18.240000000000002,15.584,-12.968000000000004,-2.2799999999999994,13.399999999999999,-20.952,22.408,30.976,31.832,29.512,19.432
11.991999999999997,19.240000000000002,15.584,-16.968000000000004,-2.2799999999999994,14.399999999999999,-21.952,24.408,30.976,30.832,29.512,18.432
11.991999999999997,22.240000000000002,15.584,-16.968000000000004,-2.2799999999999994,17.4,-22.952,24.408,30.976,29.832,29.512,17.432
11.991999999999997,25.240000000000002,15.584,-16.968000000000004,-2.2799999999999994,20.4,-24.952,24.408,30.976,27.832,29.512,15.431999999999999
11.991999999999997,26.240000000000002,15.584,-16.968000000000004,-2.2799999999999994,21.4,-24.952,22.408,30.976,27.832,29.512,15.431999999999999
11.991999999999997,26.240000000000002,15.584,-16.968000000000004,-2.2799999999999994,21.4,-24.952,19.408,30.976,27.832,29.512,15.431999999999999
11.991999999999997,26.240000000000002,15.584,-16.968000000000004,-2.2799999999999994,21.4,-24.952,19.408,30.976,27.832,29.512,15.431999999999999
11.991999999999997,26.240000000000002,15.584,-16.968000000000004,-2.2799999999999994,21.4,-24.952,19.408,30.976,27.832,29.512,15.431999999999999
11.991999999999997,26.240000000000002,15.584,-16.968000000000004,-2.2799999999999994,21.4,-24.952,19.408,30.976,27.832,29.512,15.431999999999999
11.991999999999997,26.240000000000002,15.584,-16.968000000000004,-2.2799999999999994,21.4,-24.952,19.408,30.976,27.832,29.512,15.431999999999999
11.991999999999997,26.240000000000002,15.584,-16.968000000000004,-2.2799999999999994,21.4,-24.952,19.408,30.976,27.832,29.512,15.431999999999999
11.991999999999997,26.240000000000002,15.584,-16.968000000000004,-2.2799999999999994,21.4,-24.952,19.408,30.976,27.832,29.512,15.431999999999999
11.991999999999997,29.240000000000002,18.584,-18.968000000000004,-2.2799999999999994,24.4,-24.952,19.408,30.976,27.832,29.512,15.431999999999999
11.991999999999997,30.240000000000002,19.584,-20.968000000000004,-2.2799999999999994,25.4,-24.952,19.408,30.976,27.832,29.512,15.431999999999999
13.991999999999997,30.240000000000002,19.584,-20.968000000000004,-2.2799999999999994,25.4,-24.952,19.408,30.976,27.832,29.512,15.431999999999999
15.991999999999997,30.240000000000002,19.584,-20.968000000000004,-2.2799999999999994,25.4,-24.952,19.408,30.976,27.832,29.512,15.431999999999999
15.991999999999997,30.240000000000002,19.584,-20.968000000000004,-2.2799999999999994,25.4,-24.952,19.408,30.976,27.832,29.512,15.431999999999999
15.991999999999997,30.240000000000002,19.584,-20.968000000000004,-2.2799999999999994,25.4,-24.952,19.408,30.976,27.832,29.512,15.431999999999999
15.991999999999997,30.240000000000002,19.584,-20.968000000000004,-2.2799999999999994,25.4,-24.952,19.408,30.976,27.832,29.512,15.431999999999999
15.991999999999997,30.240000000000002,19.584,-20.968000000000004,-2.2799999999999994,25.4,-24.952,19.408,30.976,27.832,29.512,15.431999999999999
15.991999999999997,30.240000000000002,19.584,-20.968000000000004,-2.2799999999999994,25.4,-24.952,19.408,30.976,27.832,29.512,15.431999999999999
15.991999999999997,30.240000000000002,19.584,-20.968000000000004,-2.2799999999999994,25.4,-24.952,19.408,30.976,27.832,29.512,15.431999999999999
15.991999999999997,30.240000000000002,17.584,-20.968000000000004,-2.2799999999999994,23.4,-24.952,19.408,30.976,27.832,27.512,15.431999999999999
15.991999999999997,30.240000000000002,15.584,-20.968000000000004,-2.2799999999999994,21.4,-24.952,19.408,29.976,27.832,25.512,15.431999999999999
15.991999999999997,30.240000000000002,15.584,-20.968000000000004,-2.2799999999999994,21.4,-24.952,19.408,27.976,27.832,25.512,15.431999999999999
15.991999999999997,30.240000000000002,15.584,-20.968000000000004,-2.2799999999999994,21.4,-24.952,19.408,25.976,27.832,25.512,15.431999999999999
15.991999999999997,30.240000000000002,15.584,-20.968000000000004,-2.2799999999999994,21.4,-24.952,19.408,25.976,27.832,25.512,15.431999999999999
15.991999999999997,30.240000000000002,15.584,-20.968000000000004,-2.2799999999999994,21.4,-24.952,19.408,25.976,27.832,25.512,15.431999999999999
15.991999999999997,30.240000000000002,15.584,-20.968000000000004,-2.2799999999999994,21.4,-24.952,19.408,25.976,27.832,25.512,15.431999999999999
15.991999999999997,30.240000000000002,15.584,-20.968000000000004,-2.2799999999999994,21.4,-24.952,19.408,25.976,27.832,25.512,15.431999999999999
15.991999999999997,30.240000000000002,15.584,-20.968000000000004,-2.2799999999999994,21.4,-24.952,19.408,25.976,27.832,25.512,15.431999999999999
15.991999999999997,30.240000000000002,15.584,-20.968000000000004,-2.2799999999999994,21.4,-24.952,19.408,25.976,27.832,25.512,15.431999999999999
15.991999999999997,30.240000000000002,15.584,-20.968000000000004,-2.2799999999999994,21.4,-24.952,19.408,25.976,27.832,25.512,15.431999999999999
15.991999999999997,30.240000000000002,15.584,-20.968000000000004,-2.2799999999999994,21.4,-24.952,19.408,25.976,27.832,25.512,15.431999999999999
15.991999999999997,30.240000000000002,15.584,-20.968000000000004,-2.2799999999999994,21.4,-24.952,19.408,25.976,27.832,25.512,15.431999999999999
15.991999999999997,30.240000000000002,15.584,-20.968000000000004,-2.2799999999999994,21.4,-24.952,19.408,25.976,27.832,25.512,15.431999999999999
15.991999999999997,30.240000000000002,15.584,-20.968000000000004,-2.2799999999999994,21.4,-24.952,19.408,25.976,27.832,25.512,15.431999999999999
15.991999999999997,30.240000000000002,15.584,-20.968000000000004,-2.2799999999999994,21.4,-24.952,19.408,25.976,27.832,25.512,15.431999999999999
15.991999999999997,30.240000000000002,15.584,-20.968000000000004,-2.2799999999999994,21.4,-24.952,19.408,23.976,27.832,25.512,15.431999999999999
15.991999999999997,30.240000000000002,15.584,-20.968000000000004,-2.2799999999999994,21.4,-24.952,19.408,21.976,27.832,25.512,15.431999999999999
15.991999999999997,30.240000000000002,15.584,-20.968000000000004,-2.2799999999999994,21.4,-24.952,19.408,21.976,27.832,25.512,15.431999999999999
15.991999999999997,30.240000000000002,15.584,-20.968000000000004,-2.2799999999999994,21.4,-24.952,19.408,21.976,27.832,25.512,15.431999999999999
15.991999999999997,30.240000000000002,15.584,-20.968000000000004,-2.2799999999999994,21.4,-22.952,19.408,21.976,27.832,25.512,15.431999999999999
15.991999999999997,30.240000000000002,15.584,-20.968000000000004,-2.2799999999999994,21.4,-20.952,19.408,21.976,27.832,25.512,15.431999999999999
15.991999999999997,30.240000000000002,15.584,-20.968000000000004,-2.2799999999999994,21.4,-20.952,19.408,21.976,27.832,25.512,15.431999999999999
15.991999999999997,30.240000000000002,15.584,-20.968000000000004,-2.2799999999999994,21.4,-20.952,19.408,21.976,27.832,25.512,15.431999999999999
15.991999999999997,30.240000000000002,15.584,-20.968000000000004,-2.2799999999999994,21.4,-20.952,19.408,21.976,27.832,25.512,15.431999999999999
15.991999999999997,30.240000000000002,15.584,-20.968000000000004,-2.2799999999999994,21.4,-20.952,19.408,20.976,27.832,25.512,15.431999999999999
15.991999999999997,30.240000000000002,15.584,-20.968000000000004,-2.2799999999999994,21.4,-20.952,17.408,19.976,27.832,25.512,15.431999999999999
15.991999999999997,30.240000000000002,15.584,-20.968000000000004,-2.2799999999999994,21.4,-20.952,15.408000000000001,17.976,27.832,25.512,15.431999999999999
15.991999999999997,30.240000000000002,15.584,-20.968000000000004,-2.2799999999999994,21.4,-20.952,15.408000000000001,17.976,27.832,25.512,15.431999999999999
15.991999999999997,30.240000000000002,15.584,-20.968000000000004,-2.2799999999999994,21.4,-20.952,15.408000000000001,17.976,27.832,24.512,15.431999999999999
15.991999999999997,30.240000000000002,15.584,-20.968000000000004,-2.2799999999999994,21.4,-20.952,15.408000000000001,17.976,27.832,23.512,15.431999999999999
15.991999999999997,30.240000000000002,15.584,-20.968000000000004,-2.2799999999999994,21.4,-20.952,15.408000000000001,17.976,27.832,21.512,15.431999999999999
15.991999999999997,30.240000000000002,15.584,-20.968000000000004,-2.2799999999999994,21.4,-20.952,15.408000000000001,17.976,27.832,21.512,15.431999999999999
15.991999999999997,30.240000000000002,15.584,-20.968000000000004,-2.2799999999999994,21.4,-20.952,15.408000000000001,17.976,27.832,21.512,15.431999999999999
15.991999999999997,30.240000000000002,15.584,-20.968000000000004,-2.2799999999999994,21.4,-20.952,10.408000000000001,14.976,25.832,18.512,15.431999999999999
15.991999999999997,30.240000000000002,15.584,-20.968000000000004,-2.2799999999999994,21.4,-20.952,7.408000000000001,13.976,23.832,17.512,15.431999999999999
15.991999999999997,28.240000000000002,15.584,-20.968000000000004,-2.2799999999999994,21.4,-20.952,7.408000000000001,13.976,23.832,17.512,15.431999999999999
15.991999999999997,26.240000000000002,15.584,-20.968000000000004,-2.2799999999999994,21.4,-20.952,7.408000000000001,13.976,23.832,17.512,15.431999999999999
15.991999999999997,26.240000000000002,15.584,-20.968000000000004,-2.2799999999999994,21.4,-20.952,7.408000000000001,13.976,23.832,17.512,15.431999999999999
15.991999999999997,26.240000000000002,15.584,-20.968000000000004,-2.2799999999999994,21.4,-20.952,7.408000000000001,13.976,23.832,17.512,15.431999999999999
15.991999999999997,26.240000000000002,15.584,-20.968000000000004,-2.2799999999999994,21.4,-20.952,7.408000000000001,13.976,23.832,17.512,15.431999999999999
15.991999999999997,24.240000000000002,14.584,-19.968000000000004,-2.2799999999999994,20.4,-20.952,6.408000000000001,13.976,23.832,17.512,14.431999999999999
15.991999999999997,21.240000000000002,13.584,-17.968000000000004,-2.2799999999999994,16.4,-20.952,4.408000000000001,13.976,23.832,17.512,12.431999999999999
15.991999999999997,18.240000000000002,11.584,-16.968000000000004,-2.2799999999999994,13.399999999999999,-20.952,3.4080000000000013,13.976,23.832,17.512,11.431999999999999
12.991999999999997,18.240000000000002,11.584,-16.968000000000004,-2.2799999999999994,13.399999999999999,-20.952,3.4080000000000013,11.976,23.832,14.512,10.431999999999999
11.991999999999997,18.240000000000002,11.584,-16.968000000000004,-2.2799999999999994,13.399999999999999,-20.952,3.4080000000000013,9.976,23.832,12.512,10.431999999999999
11.991999999999997,18.240000000000002,11.584,-16.968000000000004,-2.2799999999999994,13.399999999999999,-20.952,3.4080000000000013,9.976,23.832,12.512,10.431999999999999
11.991999999999997,17.240000000000002,10.584,-16.968000000000004,-1.2799999999999994,12.399999999999999,-19.952,3.4080000000000013,9.976,23.832,12.512,10.431999999999999
11.991999999999997,15.240000000000002,8.584,-16.968000000000004,-0.27999999999999936,10.399999999999999,-18.952,3.4080000000000013,9.976,23.832,12.512,10.431999999999999
11.991999999999997,13.240000000000002,7.584,-16.968000000000004,1.7200000000000006,8.399999999999999,-16.952,3.4080000000000013,9.976,23.832,12.512,10.431999999999999
11.991999999999997,13.240000000000002,7.584,-16.968000000000004,1.7200000000000006,8.399999999999999,-16.952,3.4080000000000013,4.976000000000001,23.832,12.512,10.431999999999999
11.991999999999997,13.240000000000002,7.584,-16.968000000000004,1.7200000000000006,8.399999999999999,-16.952,3.4080000000000013,0.9760000000000009,23.832,12.512,10.431999999999999
11.991999999999997,13.240000000000002,7.584,-16.968000000000004,1.7200000000000006,8.399999999999999,-16.952,3.4080000000000013,0.9760000000000009,23.832,12.512,10.431999999999999
11.991999999999997,13.240000000000002,7.584,-16.968000000000004,1.7200000000000006,8.399999999999999,-16.952,3.4080000000000013,0.9760000000000009,23.832,12.512,10.431999999999999
11.991999999999997,13.240000000000002,7.584,-12.968000000000004,1.7200000000000006,8.399999999999999,-14.952000000000002,3.4080000000000013,0.9760000000000009,25.832,12.512,10.431999999999999
11.991999999999997,13.240000000000002,7.584,-7.9680000000000035,1.7200000000000006,8.399999999999999,-12.952000000000002,3.4080000000000013,0.9760000000000009,27.832,12.512,10.431999999999999
11.991999999999997,13.240000000000002,9.584,-7.9680000000000035,-1.2799999999999994,8.399999999999999,-12.952000000000002,3.4080000000000013,0.9760000000000009,27.832,12.512,10.431999999999999
11.991999999999997,13.240000000000002,11.584,-7.9680000000000035,-2.2799999999999994,8.399999999999999,-12.952000000000002,3.4080000000000013,0.9760000000000009,27.832,12.512,10.431999999999999
11.991999999999997,13.240000000000002,11.584,-7.9680000000000035,-2.2799999999999994,8.399999999999999,-12.952000000000002,3.4080000000000013,0.9760000000000009,27.832,12.512,10.431999999999999
11.991999999999997,13.240000000000002,11.584,-7.9680000000000035,-2.2799999999999994,8.399999999999999,-12.952000000000002,3.4080000000000013,0.9760000000000009,27.832,12.512,10.431999999999999
11.991999999999997,13.240000000000002,11.584,-7.9680000000000035,-2.2799999999999994,8.399999999999999,-14.952000000000002,3.4080000000000013,0.9760000000000009,27.832,12.512,10.431999999999999
11.991999999999997,14.240000000000002,11.584,-8.968000000000004,-2.2799999999999994,9.399999999999999,-16.952,3.4080000000000013,0.9760000000000009,27.832,12.512,10.431999999999999
11.991999999999997,16.240000000000002,11.584,-13.968000000000004,-2.2799999999999994,11.399999999999999,-16.952,3.4080000000000013,0.9760000000000009,27.832,12.512,10.431999999999999
11.991999999999997,18.240000000000002,11.584,-16.968000000000004,-2.2799999999999994,13.399999999999999,-16.952,3.4080000000000013,0.9760000000000009,27.832,13.512,10.431999999999999
11.991999999999997,18.240000000000002,11.584,-16.968000000000004,-2.2799999999999994,13.399999999999999,-16.952,3.4080000000000013,0.9760000000000009,29.832,15.512,10.431999999999999
11.991999999999997,18.240000000000002,11.584,-16.968000000000004,-2.2799999999999994,13.399999999999999,-16.952,3.4080000000000013,0.9760000000000009,31.832,16.512,10.431999999999999
11.991999999999997,22.240000000000002,13.584,-16.968000000000004,-2.2799999999999994,17.4,-16.952,3.4080000000000013,0.9760000000000009,31.832,17.512,10.431999999999999
11.991999999999997,26.240000000000002,15.584,-16.968000000000004,-2.2799999999999994,21.4,-16.952,3.4080000000000013,0.9760000000000009,31.832,17.512,10.431999999999999
11.991999999999997,26.240000000000002,15.584,-16.968000000000004,-2.2799999999999994,21.4,-16.952,3.4080000000000013,0.9760000000000009,31.832,17.512,10.431999999999999
11.991999999999997,27.240000000000002,15.584,-16.968000000000004,-2.2799999999999994,21.4,-16.952,3.4080000000000013,0.9760000000000009,31.832,17.512,11.431999999999999
13.991999999999997,28.240000000000002,15.584,-18.968000000000004,-2.2799999999999994,21.4,-16.952,3.4080000000000013,0.9760000000000009,31.832,19.512,13.431999999999999
15.991999999999997,30.240000000000002,15.584,-20.968000000000004,-2.2799999999999994,21.4,-16.952,3.4080000000000013,0.9760000000000009,31.832,21.512,15.431999999999999
15.991999999999997,30.240000000000002,15.584,-20.968000000000004,-2.2799999999999994,21.4,-14.952000000000002,3.4080000000000013,5.976000000000001,33.832,21.512,15.431999999999999
15.991999999999997,31.240000000000002,16.584,-20.968000000000004,-3.2799999999999994,22.4,-11.952000000000002,3.4080000000000013,9.976,35.832,21.512,15.431999999999999
15.991999999999997,32.24,19.584,-20.968000000000004,-7.279999999999999,25.4,-10.952000000000002,5.408000000000001,9.976,35.832,23.512,15.431999999999999
15.991999999999997,34.24,23.584,-20.968000000000004,-10.28,29.4,-8.952000000000002,6.408000000000001,9.976,35.832,25.512,15.431999999999999
15.991999999999997,34.24,23.584,-22.968000000000004,-11.28,29.4,-8.952000000000002,7.408000000000001,9.976,35.832,25.512,15.431999999999999
15.991999999999997,35.24,23.584,-24.968000000000004,-11.28,29.4,-8.952000000000002,7.408000000000001,9.976,35.832,25.512,15.431999999999999
15.991999999999997,37.24,23.584,-24.968000000000004,-11.28,29.4,-5.952000000000002,7.408000000000001,11.976,35.832,25.512,15.431999999999999
15.991999999999997,39.24,25.584,-25.968000000000004,-11.28,29.4,-2.9520000000000017,7.408000000000001,13.976,36.832,25.512,15.431999999999999
15.991999999999997,41.24,28.584,-26.968000000000004,-11.28,31.4,0.047999999999998266,7.408000000000001,15.976,37.832,25.512,17.432
15.991999999999997,43.24,31.584,-28.968000000000004,-11.28,32.4,3.0479999999999983,7.408000000000001,17.976,39.832,25.512,19.432
15.991999999999997,43.24,34.584,-28.968000000000004,-13.28,35.4,8.047999999999998,11.408000000000001,17.976,43.832,25.512,19.432
15.991999999999997,43.24,36.584,-28.968000000000004,-15.28,37.4,12.047999999999998,15.408000000000001,17.976,48.832,25.512,19.432
15.991999999999997,46.24,36.584,-28.968000000000004,-15.28,37.4,12.047999999999998,15.408000000000001,17.976,48.832,25.512,19.432
15.991999999999997,49.24,37.584,-29.968000000000004,-15.28,39.4,13.047999999999998,15.408000000000001,18.976,48.832,26.512,20.432
15.991999999999997,54.24,41.584,-31.968000000000004,-15.28,44.4,15.047999999999998,15.408000000000001,19.976,50.832,27.512,24.432
15.991999999999997,58.24,44.584,-32.968,-15.28,49.4,16.048,15.408000000000001,21.976,52.832,29.512,27.432
15.991999999999997,61.24,47.584,-37.968,-17.28,52.4,17.048,15.408000000000001,21.976,52.832,29.512,27.432
15.991999999999997,63.24,49.584,-41.968,-19.28,54.4,17.048,15.408000000000001,22.976,52.832,29.512,27.432
15.991999999999997,66.24000000000001,52.584,-41.968,-19.28,57.4,20.048,15.408000000000001,24.976,55.832,29.512,27.432
15.991999999999997,68.24000000000001,55.584,-42.968,-20.28,59.4,23.048,15.408000000000001,26.976,57.832,29.512,27.432
15.991999999999997,70.24000000000001,58.584,-43.968,-22.28,61.4,26.048,15.408000000000001,28.976,59.832,29.512,27.432
15.991999999999997,71.24000000000001,61.584,-45.968,-23.28,62.4,29.048,15.408000000000001,30.976,60.832,29.512,27.432
15.991999999999997,71.24000000000001,61.584,-45.968,-23.28,62.4,32.048,18.408,34.976,60.832,32.512,30.432
15.991999999999997,72.24000000000001,62.584,-45.968,-23.28,63.4,34.048,19.408,38.976,60.832,33.512,31.432
15.991999999999997,76.24000000000001,63.584,-45.968,-23.28,64.4,34.048,19.408,38.976,60.832,33.512,31.432
15.991999999999997,79.24000000000001,65.584,-45.968,-23.28,66.4,34.048,19.408,38.976,60.832,33.512,31.432
15.991999999999997,82.24000000000001,67.584,-47.968,-25.28,70.4,35.048,19.408,40.976,62.832,33.512,31.432
15.991999999999997,84.24000000000001,70.584,-49.968,-28.28,75.4,38.048,19.408,42.976,64.832,33.512,31.432
17.991999999999997,87.24000000000001,70.584,-52.968,-28.28,77.4,38.048,19.408,42.976,64.832,33.512,31.432
19.991999999999997,89.24000000000001,70.584,-53.968,-28.28,80.4,38.048,19.408,43.976,65.832,34.512,31.432
19.991999999999997,90.24000000000001,72.584,-53.968,-28.28,81.4,38.048,19.408,45.976,67.832,38.512,31.432
19.991999999999997,92.24000000000001,74.584,-53.968,-28.28,83.4,38.048,19.408,46.976,68.832,41.512,31.432
19.991999999999997,94.24000000000001,76.584,-54.968,-28.28,85.4,40.048,21.408,49.976,75.832,44.512,32.432
19.991999999999997,97.24000000000001,78.584,-57.968,-28.28,88.4,42.048,24.408,51.976,81.832,46.512,35.432
22.991999999999997,99.24000000000001,78.584,-59.968,-28.28,88.4,42.048,24.408,51.976,81.832,46.512,35.432
24.991999999999997,102.24000000000001,78.584,-62.968,-28.28,88.4,41.048,24.408,51.976,81.832,46.512,35.432
26.991999999999997,106.24000000000001,78.584,-66.968,-28.28,90.4,40.048,24.408,51.976,81.832,46.512,35.432
27.991999999999997,109.24000000000001,78.584,-69.968,-28.28,92.4,38.048,24.408,51.976,81.832,46.512,35.432
30.991999999999997,111.24000000000001,78.584,-72.968,-28.28,92.4,36.048,22.408,51.976,83.832,50.512,37.432
32.992,114.24000000000001,78.584,-74.968,-28.28,92.4,33.048,19.408,51.976,86.832,54.512,39.432
32.992,114.24000000000001,78.584,-74.968,-28.28,92.4,31.048,19.408,51.976,86.832,56.512,39.432
32.992,114.24000000000001,79.584,-74.968,-28.28,93.4,26.048,17.408,49.976,86.832,58.512,39.432
32.992,116.24000000000001,81.584,-74.968,-28.28,97.4,20.048,12.408000000000001,46.976,86.832,58.512,39.432
32.992,118.24000000000001,82.584,-74.968,-28.28,100.4,13.047999999999998,7.408000000000001,43.976,86.832,58.512,39.432
36.992,118.24000000000001,82.584,-76.968,-25.28,100.4,10.047999999999998,7.408000000000001,42.976,86.832,58.512,41.432
40.992,118.24000000000001,82.584,-78.968,-23.28,100.4,7.047999999999998,6.408000000000001,42.976,86.832,58.512,43.432
42.992,120.24000000000001,82.584,-80.968,-23.28,100.4,0.047999999999998266,5.408000000000001,40.976,86.832,58.512,43.432
44.992,122.24000000000001,82.584,-82.968,-23.28,100.4,-6.952000000000002,3.4080000000000013,39.976,86.832,58.512,43.432
44.992,122.24000000000001,82.584,-82.968,-23.28,100.4,-11.952000000000002,1.4080000000000013,35.976,86.832,61.512,43.432
44.992,122.24000000000001,82.584,-82.968,-23.28,100.4,-16.952,-1.5919999999999987,30.976,86.832,66.512,43.432
47.992,122.24000000000001,80.584,-82.968,-21.28,100.4,-19.952,-3.5919999999999987,27.976,86.832,66.512,48.432
48.992,122.24000000000001,78.584,-82.968,-19.28,100.4,-22.952,-5.591999999999999,25.976,86.832,66.512,52.432
48.992,122.24000000000001,78.584,-82.968,-19.28,100.4,-26.952,-7.591999999999999,23.976,86.832,66.512,52.432
48.992,122.24000000000001,78.584,-82.968,-19.28,100.4,-31.952,-9.591999999999999,22.976,86.832,66.512,52.432
48.992,122.24000000000001,76.584,-82.968,-17.28,100.4,-36.952,-13.591999999999999,17.976,84.832,66.512,52.432
48.992,122.24000000000001,74.584,-82.968,-15.28,100.4,-41.952,-17.592,13.976,81.832,66.512,52.432
48.992,122.24000000000001,74.584,-82.968,-15.28,100.4,-43.952,-19.592,10.976,79.832,66.512,52.432
48.992,121.24000000000001,73.584,-82.968,-15.28,99.4,-45.952,-21.592,9.976,77.832,66.512,52.432
48.992,120.24000000000001,72.584,-82.968,-15.28,96.4,-45.952,-21.592,9.976,77.832,66.512,52.432
48.992,118.24000000000001,70.584,-82.968,-15.28,92.4,-45.952,-21.592,9.976,77.832,66.512,52.432
50.992,116.24000000000001,66.584,-82.968,-9.28,88.4,-45.952,-21.592,4.976000000000001,77.832,66.512,52.432
52.992,113.24000000000001,60.584,-82.968,-2.2799999999999994,83.4,-45.952,-21.592,0.9760000000000009,76.832,65.512,51.432
52.992,105.24000000000001,53.584,-79.968,-0.27999999999999936,78.4,-45.952,-21.592,-2.023999999999999,69.832,60.512,46.432
52.992,100.24000000000001,48.584,-78.968,1.7200000000000006,73.4,-45.952,-20.592,-3.023999999999999,64.832,58.512,43.432
52.992,99.24000000000001,46.584,-78.968,1.7200000000000006,70.4,-45.952,-18.592,-3.023999999999999,64.832,58.512,43.432
52.992,97.24000000000001,45.584,-78.968,1.7200000000000006,67.4,-45.952,-17.592,-3.023999999999999,64.832,58.512,43.432
52.992,92.24000000000001,40.584,-76.968,3.7200000000000006,62.4,-45.952,-17.592,-3.023999999999999,62.832,54.512,41.432
52.992,87.24000000000001,36.584,-72.968,5.720000000000001,58.4,-45.952,-17.592,-3.023999999999999,60.832,50.512,39.432
52.992,82.24000000000001,33.584,-65.968,5.720000000000001,55.4,-45.952,-17.592,-3.023999999999999,57.832,47.512,39.432
51.992,77.24000000000001,30.584,-60.968,5.720000000000001,52.4,-45.952,-17.592,-3.023999999999999,56.832,45.512,38.432
49.992,72.24000000000001,27.584,-58.968,5.720000000000001,49.4,-45.952,-17.592,-3.023999999999999,56.832,44.512,36.432
48.992,67.24000000000001,23.584,-57.968,5.720000000000001,45.4,-45.952,-17.592,-3.023999999999999,56.832,42.512,35.432
48.992,65.24000000000001,21.584,-54.968,7.720000000000001,41.4,-42.952,-13.591999999999999,-3.023999999999999,54.832,42.512,35.432
48.992,62.24,19.584,-53.968,9.72,36.4,-39.952,-9.591999999999999,-3.023999999999999,52.832,41.512,34.432
46.992,59.24,17.584,-51.968,9.72,35.4,-36.952,-9.591999999999999,-3.023999999999999,52.832,38.512,33.432
45.992,55.24,15.584,-50.968,9.72,33.4,-33.952,-9.591999999999999,-3.023999999999999,52.832,34.512,31.432
42.992,50.24,13.584,-46.968,9.72,29.4,-28.952,-7.591999999999999,-3.023999999999999,50.832,32.512,30.432
40.992,43.24,11.584,-41.968,9.72,25.4,-24.952,-5.591999999999999,-3.023999999999999,47.832,29.512,27.432
35.992,38.24,8.584,-36.968,9.72,23.4,-24.952,-5.591999999999999,-3.023999999999999,42.832,29.512,22.432
31.991999999999997,33.24,6.584,-31.968000000000004,9.72,19.4,-24.952,-5.591999999999999,-3.023999999999999,39.832,28.512,18.432
29.991999999999997,30.240000000000002,3.5839999999999996,-28.968000000000004,9.72,14.399999999999999,-22.952,-5.591999999999999,-3.023999999999999,37.832,25.512,17.432
28.991999999999997,27.240000000000002,0.5839999999999996,-25.968000000000004,9.72,9.399999999999999,-21.952,-5.591999999999999,-3.023999999999999,35.832,21.512,15.431999999999999
23.991999999999997,20.240000000000002,-0.41600000000000037,-20.968000000000004,9.72,6.399999999999999,-18.952,-5.591999999999999,-5.023999999999999,33.832,19.512,13.431999999999999
19.991999999999997,13.240000000000002,-0.41600000000000037,-15.968000000000004,9.72,4.399999999999999,-16.952,-5.591999999999999,-7.023999999999999,30.832,16.512,10.431999999999999
16.991999999999997,8.240000000000002,-3.4160000000000004,-10.968000000000004,9.72,1.3999999999999986,-13.952000000000002,-5.591999999999999,-7.023999999999999,28.832,14.512,8.431999999999999
14.991999999999997,4.240000000000002,-4.416,-6.9680000000000035,9.72,-0.6000000000000014,-11.952000000000002,-5.591999999999999,-7.023999999999999,27.832,11.512,5.431999999999999
12.991999999999997,3.240000000000002,-4.416,-5.9680000000000035,7.720000000000001,-1.6000000000000014,-9.952000000000002,-5.591999999999999,-7.023999999999999,27.832,8.512,4.431999999999999
11.991999999999997,1.240000000000002,-4.416,-3.9680000000000035,5.720000000000001,-3.6000000000000014,-8.952000000000002,-5.591999999999999,-7.023999999999999,27.832,4.5120000000000005,2.4319999999999986
6.991999999999997,-3.759999999999998,-4.416,-1.9680000000000035,5.720000000000001,-3.6000000000000014,-8.952000000000002,-7.591999999999999,-11.024,21.832,2.5120000000000005,0.4319999999999986
2.9919999999999973,-7.759999999999998,-5.416,1.0319999999999965,5.720000000000001,-4.600000000000001,-7.952000000000002,-9.591999999999999,-15.024,15.832,0.5120000000000005,-2.5680000000000014
2.9919999999999973,-10.759999999999998,-7.416,3.0319999999999965,5.720000000000001,-6.600000000000001,-5.952000000000002,-9.591999999999999,-15.024,15.832,0.5120000000000005,-7.568000000000001
1.9919999999999973,-12.759999999999998,-8.416,5.0319999999999965,5.720000000000001,-9.600000000000001,-3.9520000000000017,-11.591999999999999,-16.024,14.832,-0.48799999999999955,-11.568000000000001
0.9919999999999973,-13.759999999999998,-8.416,7.0319999999999965,5.720000000000001,-12.600000000000001,-3.9520000000000017,-14.591999999999999,-20.024,12.832,-2.4879999999999995,-12.568000000000001
-1.0080000000000027,-15.759999999999998,-8.416,9.031999999999996,5.720000000000001,-16.6,-3.9520000000000017,-17.592,-23.024,11.832,-3.4879999999999995,-14.568000000000001
-1.0080000000000027,-20.759999999999998,-13.416,11.031999999999996,5.720000000000001,-21.6,-3.9520000000000017,-17.592,-26.024,8.832,-4.4879999999999995,-14.568000000000001
-1.0080000000000027,-24.759999999999998,-17.416,13.031999999999996,5.720000000000001,-25.6,-3.9520000000000017,-17.592,-28.024,6.832000000000001,-4.4879999999999995,-14.568000000000001
-1.0080000000000027,-26.759999999999998,-19.416,13.031999999999996,5.720000000000001,-26.6,-3.9520000000000017,-19.592,-29.024,4.832000000000001,-6.4879999999999995,-16.568
-1.0080000000000027,-27.759999999999998,-21.416,13.031999999999996,5.720000000000001,-28.6,-3.9520000000000017,-20.592,-31.024,3.8320000000000007,-7.4879999999999995,-18.568
-1.0080000000000027,-28.759999999999998,-21.416,13.031999999999996,5.720000000000001,-29.6,-3.9520000000000017,-23.592,-35.024,-0.16799999999999926,-10.488,-18.568
-1.0080000000000027,-28.759999999999998,-21.416,13.031999999999996,5.720000000000001,-29.6,-3.9520000000000017,-25.592,-40.024,-5.167999999999999,-12.488,-18.568
-1.0080000000000027,-28.759999999999998,-21.416,13.031999999999996,5.720000000000001,-29.6,-3.9520000000000017,-27.592,-43.024,-10.168,-17.488,-21.568
-1.0080000000000027,-29.759999999999998,-22.416,14.031999999999996,6.720000000000001,-29.6,-3.9520000000000017,-29.592,-44.024,-14.168,-20.488,-22.568
-1.0080000000000027,-32.76,-25.416,17.031999999999996,7.720000000000001,-31.6,-3.9520000000000017,-29.592,-44.024,-16.168,-20.488,-22.568
-1.0080000000000027,-36.76,-29.416,21.031999999999996,9.72,-32.6,-3.9520000000000017,-29.592,-44.024,-18.168,-20.488,-22.568
-1.0080000000000027,-38.76,-31.416,21.031999999999996,9.72,-37.6,-5.952000000000002,-29.592,-48.024,-20.168,-20.488,-22.568
-1.0080000000000027,-41.76,-34.416,21.031999999999996,9.72,-41.6,-8.952000000000002,-29.592,-53.024,-22.168,-20.488,-22.568
-1.0080000000000027,-41.76,-34.416,21.031999999999996,9.72,-41.6,-8.952000000000002,-29.592,-53.024,-22.168,-20.488,-22.568
-1.0080000000000027,-41.76,-35.416,21.031999999999996,11.72,-42.6,-8.952000000000002,-29.592,-53.024,-23.168,-20.488,-22.568
-1.0080000000000027,-43.76,-38.416,21.031999999999996,15.72,-44.6,-8.952000000000002,-29.592,-55.024,-24.168,-20.488,-22.568
-1.0080000000000027,-45.76,-42.416,21.031999999999996,20.72,-45.6,-8.952000000000002,-29.592,-57.024,-26.168,-20.488,-22.568
-1.0080000000000027,-45.76,-42.416,21.031999999999996,21.72,-45.6,-8.952000000000002,-29.592,-57.024,-26.168,-23.488,-22.568
-1.0080000000000027,-45.76,-42.416,21.031999999999996,21.72,-45.6,-8.952000000000002,-29.592,-57.024,-26.168,-25.488,-22.568
-1.0080000000000027,-45.76,-42.416,21.031999999999996,21.72,-45.6,-8.952000000000002,-29.592,-57.024,-26.168,-25.488,-22.568
-1.0080000000000027,-45.76,-42.416,21.031999999999996,21.72,-45.6,-8.952000000000002,-29.592,-57.024,-26.168,-25.488,-22.568
-1.0080000000000027,-45.76,-42.416,21.031999999999996,21.72,-45.6,-8.952000000000002,-29.592,-57.024,-26.168,-25.488,-22.568
-1.0080000000000027,-45.76,-42.416,21.031999999999996,21.72,-45.6,-8.952000000000002,-29.592,-57.024,-26.168,-25.488,-22.568
-1.0080000000000027,-45.76,-42.416,21.031999999999996,21.72,-45.6,-8.952000000000002,-29.592,-57.024,-26.168,-25.488,-22.568
-1.0080000000000027,-45.76,-42.416,21.031999999999996,21.72,-45.6,-8.952000000000002,-29.592,-57.024,-26.168,-25.488,-22.568
-1.0080000000000027,-45.76,-42.416,21.031999999999996,21.72,-45.6,-8.952000000000002,-29.592,-57.024,-26.168,-25.488,-22.568
-1.0080000000000027,-45.76,-42.416,21.031999999999996,21.72,-45.6,-8.952000000000002,-29.592,-57.024,-26.168,-25.488,-22.568
-1.0080000000000027,-45.76,-42.416,21.031999999999996,21.72,-45.6,-8.952000000000002,-29.592,-57.024,-26.168,-25.488,-22.568
-1.0080000000000027,-45.76,-42.416,21.031999999999996,21.72,-45.6,-8.952000000000002,-29.592,-57.024,-26.168,-25.488,-22.568
-1.0080000000000027,-45.76,-42.416,21.031999999999996,21.72,-45.6,-8.952000000000002,-29.592,-57.024,-26.168,-25.488,-22.568
-1.0080000000000027,-45.76,-42.416,21.031999999999996,21.72,-45.6,-8.952000000000002,-29.592,-57.024,-26.168,-25.488,-22.568
-1.0080000000000027,-45.76,-42.416,21.031999999999996,21.72,-45.6,-8.952000000000002,-29.592,-57.024,-26.168,-25.488,-22.568
-1.0080000000000027,-45.76,-42.416,21.031999999999996,21.72,-45.6,-8.952000000000002,-29.592,-57.024,-26.168,-25.488,-22.568
-1.0080000000000027,-45.76,-42.416,21.031999999999996,21.72,-45.6,-8.952000000000002,-29.592,-57.024,-26.168,-25.488,-22.568
-1.0080000000000027,-45.76,-42.416,21.031999999999996,21.72,-45.6,-8.952000000000002,-29.592,-57.024,-26.168,-25.488,-22.568
-1.0080000000000027,-45.76,-42.416,21.031999999999996,21.72,-45.6,-8.952000000000002,-29.592,-57.024,-26.168,-25.488,-22.568
-1.0080000000000027,-45.76,-42.416,22.031999999999996,21.72,-45.6,-7.952000000000002,-29.592,-56.024,-26.168,-25.488,-22.568
-1.0080000000000027,-45.76,-42.416,24.031999999999996,21.72,-45.6,-5.952000000000002,-29.592,-55.024,-24.168,-25.488,-22.568
-1.0080000000000027,-45.76,-42.416,25.031999999999996,21.72,-45.6,-4.952000000000002,-29.592,-53.024,-22.168,-25.488,-22.568
-1.0080000000000027,-45.76,-42.416,26.031999999999996,21.72,-45.6,-3.9520000000000017,-29.592,-53.024,-22.168,-25.488,-22.568
-1.0080000000000027,-45.76,-42.416,26.031999999999996,21.72,-45.6,-3.9520000000000017,-29.592,-53.024,-22.168,-25.488,-22.568
-1.0080000000000027,-45.76,-42.416,26.031999999999996,21.72,-45.6,1.0479999999999983,-29.592,-53.024,-19.168,-25.488,-22.568
-1.0080000000000027,-45.76,-42.416,26.031999999999996,21.72,-45.6,4.047999999999998,-29.592,-53.024,-18.168,-25.488,-22.568
-1.0080000000000027,-45.76,-42.416,26.031999999999996,21.72,-45.6,4.047999999999998,-29.592,-53.024,-18.168,-25.488,-22.568
-1.0080000000000027,-45.76,-42.416,26.031999999999996,21.72,-45.6,4.047999999999998,-29.592,-53.024,-18.168,-25.488,-22.568
-1.0080000000000027,-45.76,-42.416,26.031999999999996,21.72,-45.6,4.047999999999998,-29.592,-53.024,-18.168,-25.488,-22.568
-1.0080000000000027,-45.76,-42.416,26.031999999999996,20.72,-45.6,3.0479999999999983,-29.592,-53.024,-18.168,-25.488,-23.568
-1.0080000000000027,-45.76,-40.416,26.031999999999996,17.72,-45.6,0.047999999999998266,-29.592,-53.024,-20.168,-25.488,-24.568
-1.0080000000000027,-45.76,-38.416,26.031999999999996,14.72,-45.6,-2.9520000000000017,-29.592,-53.024,-22.168,-25.488,-26.568
-1.0080000000000027,-45.76,-38.416,26.031999999999996,13.72,-45.6,-3.9520000000000017,-29.592,-53.024,-22.168,-25.488,-27.568
-1.0080000000000027,-45.76,-38.416,26.031999999999996,13.72,-45.6,-3.9520000000000017,-29.592,-53.024,-22.168,-25.488,-27.568
-1.0080000000000027,-45.76,-38.416,26.031999999999996,13.72,-45.6,-3.9520000000000017,-29.592,-53.024,-22.168,-25.488,-27.568
-1.0080000000000027,-45.76,-38.416,26.031999999999996,13.72,-45.6,-4.952000000000002,-29.592,-53.024,-22.168,-25.488,-27.568
-1.0080000000000027,-45.76,-38.416,26.031999999999996,13.72,-45.6,-6.952000000000002,-29.592,-53.024,-22.168,-25.488,-27.568
-1.0080000000000027,-45.76,-38.416,26.031999999999996,13.72,-45.6,-7.952000000000002,-29.592,-53.024,-22.168,-25.488,-27.568
-1.0080000000000027,-45.76,-38.416,26.031999999999996,13.72,-45.6,-8.952000000000002,-29.592,-53.024,-22.168,-25.488,-27.568
-1.0080000000000027,-45.76,-38.416,26.031999999999996,13.72,-45.6,-8.952000000000002,-29.592,-52.024,-22.168,-25.488,-27.568
-1.0080000000000027,-45.76,-38.416,26.031999999999996,13.72,-45.6,-8.952000000000002,-29.592,-47.024,-22.168,-25.488,-27.568
-1.0080000000000027,-45.76,-38.416,26.031999999999996,13.72,-45.6,-7.952000000000002,-27.592,-43.024,-22.168,-25.488,-27.568
-1.0080000000000027,-45.76,-38.416,26.031999999999996,13.72,-45.6,-5.952000000000002,-22.592,-40.024,-22.168,-25.488,-27.568
-1.0080000000000027,-45.76,-38.416,26.031999999999996,13.72,-45.6,-4.952000000000002,-17.592,-36.024,-22.168,-25.488,-27.568
-1.0080000000000027,-49.76,-42.416,28.031999999999996,17.72,-50.6,2.0479999999999983,-11.591999999999999,-34.024,-26.168,-29.488,-33.568
-1.0080000000000027,-54.76,-47.416,30.031999999999996,21.72,-54.6,10.047999999999998,-3.5919999999999987,-30.024,-31.168,-34.488,-40.568
-1.0080000000000027,-62.76,-55.416,33.032,24.72,-59.6,22.048,11.408000000000001,-18.024,-36.168,-44.488,-48.568
-2.0080000000000027,-69.75999999999999,-61.416,36.032,26.72,-65.6,34.048,26.408,-6.023999999999999,-40.168,-51.488,-53.568
-4.008000000000003,-75.75999999999999,-66.416,41.032,28.72,-72.6,46.048,41.408,6.976000000000001,-44.168,-55.488,-54.568
-5.008000000000003,-82.75999999999999,-71.416,46.032,29.72,-78.6,58.048,56.408,20.976,-47.168,-58.488,-56.568
-5.008000000000003,-92.75999999999999,-80.416,51.032,32.72,-88.6,74.048,75.408,37.976,-52.168,-69.488,-65.568
-5.008000000000003,-101.75999999999999,-89.416,56.032,34.72,-97.6,90.048,94.408,53.976,-57.168,-80.488,-74.568
-5.008000000000003,-108.75999999999999,-94.416,57.032,38.72,-102.6,100.048,109.408,65.976,-62.168,-85.488,-81.568
-5.008000000000003,-114.75999999999999,-99.416,59.032,41.72,-107.6,110.048,124.408,76.976,-67.168,-90.488,-88.568
-5.008000000000003,-120.75999999999999,-106.416,61.032,45.72,-112.6,123.048,141.40800000000002,92.976,-70.168,-100.488,-95.568
-5.008000000000003,-125.75999999999999,-114.416,64.032,50.72,-117.6,138.048,158.40800000000002,109.976,-73.168,-113.488,-102.568
-8.008000000000003,-127.75999999999999,-114.416,66.032,50.72,-122.6,156.048,175.40800000000002,134.976,-73.168,-113.488,-105.568
-10.008000000000003,-129.76,-113.416,68.032,50.72,-125.6,170.048,191.40800000000002,155.976,-71.168,-114.488,-107.568
-10.008000000000003,-127.75999999999999,-112.416,68.032,46.72,-121.6,175.048,201.40800000000002,167.976,-64.168,-115.488,-109.568
-10.008000000000003,-125.75999999999999,-110.416,68.032,43.72,-118.6,180.048,211.40800000000002,178.976,-58.168,-117.488,-110.568
-10.008000000000003,-118.75999999999999,-104.416,64.032,42.72,-112.6,188.048,224.40800000000002,198.976,-42.168,-116.488,-111.568
-10.008000000000003,-108.75999999999999,-97.416,59.032,42.72,-104.6,198.048,239.40800000000002,220.976,-21.168,-113.488,-111.568
-7.008000000000003,-90.75999999999999,-82.416,52.032,37.72,-89.6,206.048,254.40800000000002,250.976,10.832,-98.488,-103.568
-3.0080000000000027,-73.75999999999999,-68.416,42.032,32.72,-74.6,211.048,266.408,277.976,41.832,-84.488,-96.568
3.9919999999999973,-56.76,-56.416,29.031999999999996,29.72,-59.6,211.048,273.408,299.976,71.832,-72.488,-87.568
9.991999999999997,-40.76,-45.416,16.031999999999996,26.72,-44.6,211.048,280.408,321.976,100.832,-61.488,-79.568
16.991999999999997,-7.759999999999998,-22.416,-4.9680000000000035,17.72,-18.6,209.048,291.408,355.976,158.832,-35.488,-63.568
24.991999999999997,30.240000000000002,3.5839999999999996,-27.968000000000004,8.72,13.399999999999999,205.048,303.408,392.976,225.832,-3.4879999999999995,-45.568
37.992,74.24000000000001,39.584,-56.968,-3.2799999999999994,54.4,193.048,308.408,435.976,309.832,40.512,-15.568000000000001
48.992,118.24000000000001,73.584,-84.968,-13.28,93.4,179.048,310.408,468.976,386.832,80.512,11.431999999999999
60.992,159.24,101.584,-109.968,-20.28,128.4,162.048,308.408,488.976,451.832,115.512,34.432
71.99199999999999,201.24,129.584,-133.96800000000002,-27.28,163.4,146.048,307.408,508.976,515.832,150.512,57.432
88.99199999999999,264.24,176.584,-176.96800000000002,-43.28,219.4,113.048,294.408,530.976,621.832,211.512,99.432
106.99199999999999,333.24,226.584,-220.96800000000002,-60.28,279.4,77.048,278.408,551.976,734.832,277.512,144.432
126.99199999999999,405.24,276.584,-265.968,-75.28,339.4,32.048,261.408,566.976,854.832,349.512,194.432
145.992,466.24,318.584,-305.968,-86.28,390.4,-9.952000000000002,242.40800000000002,574.976,954.832,410.512,236.432
163.992,516.24,353.584,-340.968,-95.28,431.4,-46.952,222.40800000000002,574.976,1032.832,460.512,269.432
181.992,566.24,388.584,-375.968,-103.28,473.4,-84.952,202.40800000000002,574.976,1110.832,510.512,303.432
206.992,639.24,432.584,-424.968,-111.28,534.4,-147.952,178.40800000000002,576.976,1227.832,590.512,358.432
229.992,708.24,474.584,-470.968,-118.28,591.4,-208.952,152.40800000000002,577.976,1335.832,665.512,411.432
247.992,758.24,506.584,-503.968,-127.28,631.4,-256.952,126.408,570.976,1406.832,719.512,449.432
266.992,807.24,537.584,-536.968,-135.28,670.4,-304.952,99.408,563.976,1478.832,772.512,487.432
290.992,871.24,578.584,-579.968,-144.28,723.4,-375.952,55.408,535.976,1562.832,842.512,537.432
318.992,941.24,623.584,-627.968,-154.28,780.4,-454.952,2.4080000000000013,498.976,1651.832,919.512,592.432
338.992,1008.24,670.584,-671.968,-164.28,837.4,-541.952,-73.592,433.976,1719.832,991.512,649.432
354.992,1067.24,712.584,-710.968,-174.28,887.4,-621.952,-145.59199999999998,370.976,1772.832,1054.512,700.432
364.992,1107.24,742.584,-735.968,-184.28,922.4,-682.952,-207.59199999999998,310.976,1793.832,1097.512,737.432
374.992,1147.24,772.584,-760.968,-194.28,957.4,-743.952,-268.592,250.976,1815.832,1141.512,773.432
382.992,1186.24,804.584,-783.968,-206.28,992.4,-829.952,-363.592,143.976,1820.832,1189.512,814.432
390.992,1225.24,835.584,-804.968,-218.28,1026.4,-919.952,-467.592,19.976,1816.832,1237.512,855.432
395.992,1242.24,850.584,-817.968,-223.28,1043.4,-994.952,-569.592,-116.024,1769.832,1264.512,883.432
396.992,1252.24,859.584,-824.968,-227.28,1054.4,-1057.952,-658.592,-238.024,1718.832,1282.512,903.432
393.992,1251.24,859.584,-822.968,-231.28,1054.4,-1100.952,-727.592,-336.024,1662.832,1284.512,913.432
390.992,1249.24,859.584,-821.968,-234.28,1054.4,-1143.952,-795.592,-434.024,1605.832,1285.512,923.432
381.992,1226.24,848.584,-804.968,-234.28,1037.4,-1188.952,-879.592,-566.024,1500.832,1275.512,929.432
370.992,1196.24,833.584,-782.968,-233.28,1015.4,-1231.952,-963.592,-705.024,1381.832,1259.512,932.432
355.992,1154.24,803.584,-752.968,-226.28,977.4,-1263.952,-1033.592,-834.024,1239.832,1219.512,919.432
341.992,1112.24,774.584,-723.968,-220.28,942.4,-1281.952,-1086.592,-935.024,1117.832,1182.512,905.432
328.992,1070.24,746.584,-695.968,-215.28,909.4,-1281.952,-1117.592,-1001.024,1019.832,1149.512,888.432
315.992,1029.24,718.584,-667.968,-210.28,875.4,-1281.952,-1149.592,-1068.024,921.832,1116.512,872.432
288.992,957.24,675.584,-619.968,-198.28,816.4,-1274.952,-1181.592,-1153.024,770.832,1049.512,836.432
263.992,887.24,631.584,-573.968,-186.28,757.4,-1264.952,-1209.592,-1231.024,625.832,984.512,801.432
247.992,836.24,593.584,-540.968,-176.28,712.4,-1242.952,-1218.592,-1276.024,526.832,936.512,775.432
230.992,784.24,555.584,-506.968,-166.28,668.4,-1220.952,-1228.592,-1321.024,426.832,888.512,748.432
208.992,709.24,504.584,-459.968,-151.28,604.4,-1181.952,-1230.592,-1364.024,301.832,818.512,702.432
183.992,622.24,446.584,-404.968,-134.28,532.4,-1134.952,-1228.592,-1406.024,164.832,739.512,648.432
163.992,534.24,377.584,-346.968,-111.28,452.4,-1072.952,-1188.592,-1412.024,42.832,659.512,593.432
144.992,456.24,315.584,-296.968,-91.28,382.4,-1014.952,-1150.592,-1412.024,-62.168,587.512,543.432
130.992,400.24,272.584,-261.968,-76.28,334.4,-968.952,-1115.592,-1401.024,-129.168,534.512,505.432
115.99199999999999,343.24,228.584,-226.96800000000002,-61.28,285.4,-921.952,-1080.592,-1389.024,-195.168,480.512,466.432
98.99199999999999,271.24,175.584,-182.96800000000002,-42.28,223.4,-854.952,-1021.592,-1356.024,-266.168,413.512,418.432
81.99199999999999,195.24,118.584,-135.96800000000002,-22.28,156.4,-779.952,-953.592,-1315.024,-337.168,342.512,366.432
71.99199999999999,132.24,68.584,-100.968,-3.2799999999999994,99.4,-704.952,-876.592,-1248.024,-384.168,282.512,318.432
62.992,81.24000000000001,27.584,-71.968,13.72,52.4,-641.952,-808.592,-1184.024,-419.168,232.512,279.432
55.992,51.24,1.5839999999999996,-52.968,22.72,25.4,-598.952,-757.592,-1128.024,-430.168,201.512,254.432
49.992,19.240000000000002,-25.416,-32.968,32.72,-2.6000000000000014,-555.952,-705.592,-1071.024,-442.168,169.512,229.432
46.992,-10.759999999999998,-50.416,-16.968000000000004,44.72,-30.6,-500.952,-635.592,-990.024,-444.168,133.512,196.432
44.992,-39.76,-74.416,-2.9680000000000035,55.72,-56.6,-444.952,-562.592,-903.024,-442.168,97.512,162.432
41.992,-59.76,-91.416,7.0319999999999965,60.72,-76.6,-397.952,-499.592,-821.024,-427.168,69.512,135.432
40.992,-72.75999999999999,-103.416,14.031999999999996,64.72,-90.6,-359.952,-450.592,-753.024,-412.168,50.512,113.432
40.992,-75.75999999999999,-108.416,18.031999999999996,66.72,-95.6,-334.952,-416.592,-703.024,-397.168,38.512,100.432
40.992,-78.75999999999999,-113.416,21.031999999999996,67.72,-100.6,-309.952,-383.592,-653.024,-382.168,26.512,87.432
40.992,-79.75999999999999,-114.416,21.031999999999996,67.72,-100.6,-277.952,-340.592,-590.024,-352.168,18.512,72.432
39.992,-78.75999999999999,-113.416,21.031999999999996,67.72,-99.6,-247.952,-299.592,-531.024,-322.168,12.512,59.432
36.992,-77.75999999999999,-108.416,21.031999999999996,65.72,-94.6,-228.952,-274.592,-492.024,-300.168,8.512,52.432
33.992,-75.75999999999999,-103.416,21.031999999999996,64.72,-89.6,-208.952,-249.59199999999998,-454.024,-279.168,5.5120000000000005,45.432
32.992,-71.75999999999999,-98.416,21.031999999999996,62.72,-84.6,-184.952,-219.59199999999998,-408.024,-252.168,2.5120000000000005,40.432
32.992,-66.75999999999999,-93.416,21.031999999999996,59.72,-79.6,-160.952,-187.59199999999998,-359.024,-222.168,0.5120000000000005,35.432
29.991999999999997,-59.76,-83.416,17.031999999999996,54.72,-74.6,-137.952,-159.59199999999998,-311.024,-192.168,0.5120000000000005,32.432
27.991999999999997,-52.76,-75.416,13.031999999999996,50.72,-69.6,-118.952,-135.59199999999998,-269.024,-166.168,0.5120000000000005,31.432
27.991999999999997,-47.76,-70.416,11.031999999999996,46.72,-62.6,-108.952,-122.592,-243.024,-153.168,2.5120000000000005,29.432
27.991999999999997,-42.76,-65.416,9.031999999999996,43.72,-56.6,-98.952,-109.592,-216.024,-140.168,3.5120000000000005,28.432
26.991999999999997,-35.76,-56.416,7.0319999999999965,38.72,-48.6,-86.952,-92.592,-185.024,-122.168,4.5120000000000005,24.432
23.991999999999997,-28.759999999999998,-46.416,4.0319999999999965,34.72,-41.6,-74.952,-75.592,-153.024,-102.168,4.5120000000000005,19.432
23.991999999999997,-23.759999999999998,-41.416,2.0319999999999965,31.72,-34.6,-64.952,-58.592,-126.024,-84.168,4.5120000000000005,16.432
23.991999999999997,-19.759999999999998,-37.416,0.031999999999996476,28.72,-28.6,-55.952,-44.592,-103.024,-69.168,5.5120000000000005,15.431999999999999
21.991999999999997,-17.759999999999998,-33.416,0.031999999999996476,25.72,-26.6,-48.952,-37.592,-88.024,-59.168,8.512,15.431999999999999
19.991999999999997,-16.759999999999998,-30.416,0.031999999999996476,22.72,-25.6,-42.952,-31.592,-73.024,-49.168,12.512,15.431999999999999
19.991999999999997,-13.759999999999998,-26.416,0.031999999999996476,21.72,-22.6,-36.952,-25.592,-58.024,-40.168,12.512,15.431999999999999
19.991999999999997,-11.759999999999998,-21.416,0.031999999999996476,20.72,-20.6,-31.952,-20.592,-43.024,-30.168,12.512,14.431999999999999
19.991999999999997,-8.759999999999998,-18.416,-1.9680000000000035,15.72,-17.6,-26.952,-11.591999999999999,-31.024,-22.168,12.512,12.431999999999999
19.991999999999997,-7.759999999999998,-17.416,-3.9680000000000035,13.72,-16.6,-23.952,-3.5919999999999987,-20.024,-15.168,12.512,10.431999999999999
19.991999999999997,-7.759999999999998,-17.416,-3.9680000000000035,13.72,-16.6,-20.952,-0.5919999999999987,-11.024,-9.168,12.512,10.431999999999999
19.991999999999997,-7.759999999999998,-17.416,-3.9680000000000035,13.72,-16.6,-17.952,2.4080000000000013,-4.023999999999999,-2.1679999999999993,12.512,10.431999999999999
17.991999999999997,-2.759999999999998,-13.416,-3.9680000000000035,11.72,-9.600000000000001,-12.952000000000002,9.408000000000001,2.976000000000001,2.8320000000000007,12.512,10.431999999999999
15.991999999999997,1.240000000000002,-8.416,-3.9680000000000035,9.72,-3.6000000000000014,-7.952000000000002,16.408,9.976,7.832000000000001,13.512,10.431999999999999
15.991999999999997,1.240000000000002,-8.416,-3.9680000000000035,9.72,-3.6000000000000014,-6.952000000000002,17.408,14.976,8.832,14.512,10.431999999999999
15.991999999999997,1.240000000000002,-8.416,-3.9680000000000035,9.72,-3.6000000000000014,-4.952000000000002,19.408,19.976,10.832,16.512,10.431999999999999
15.991999999999997,1.240000000000002,-8.416,-3.9680000000000035,9.72,-3.6000000000000014,-0.9520000000000017,21.408,24.976,12.832,17.512,9.431999999999999
15.991999999999997,1.240000000000002,-8.416,-3.9680000000000035,9.72,-3.6000000000000014,4.047999999999998,24.408,29.976,15.832,17.512,6.431999999999999
15.991999999999997,1.240000000000002,-8.416,-3.9680000000000035,9.72,-3.6000000000000014,4.047999999999998,26.408,37.976,20.832,17.512,6.431999999999999
15.991999999999997,1.240000000000002,-8.416,-3.9680000000000035,9.72,-3.6000000000000014,4.047999999999998,28.408,42.976,23.832,17.512,6.431999999999999
15.991999999999997,3.240000000000002,-8.416,-5.9680000000000035,9.72,-3.6000000000000014,4.047999999999998,28.408,42.976,23.832,17.512,4.431999999999999
15.991999999999997,4.240000000000002,-8.416,-7.9680000000000035,9.72,-3.6000000000000014,4.047999999999998,28.408,42.976,23.832,17.512,2.4319999999999986
15.991999999999997,5.240000000000002,-8.416,-7.9680000000000035,9.72,-3.6000000000000014,4.047999999999998,30.408,46.976,25.832,17.512,2.4319999999999986
15.991999999999997,5.240000000000002,-8.416,-7.9680000000000035,9.72,-3.6000000000000014,4.047999999999998,32.408,51.976,27.832,17.512,2.4319999999999986
15.991999999999997,5.240000000000002,-8.416,-7.9680000000000035,9.72,-3.6000000000000014,7.047999999999998,35.408,53.976,27.832,17.512,2.4319999999999986
15.991999999999997,5.240000000000002,-8.416,-7.9680000000000035,9.72,-3.6000000000000014,8.047999999999998,37.408,56.976,27.832,17.512,2.4319999999999986
15.991999999999997,5.240000000000002,-8.416,-7.9680000000000035,9.72,-3.6000000000000014,8.047999999999998,41.408,57.976,29.832,17.512,2.4319999999999986
15.991999999999997,5.240000000000002,-8.416,-7.9680000000000035,9.72,-3.6000000000000014,8.047999999999998,44.408,59.976,30.832,17.512,2.4319999999999986
17.991999999999997,7.240000000000002,-8.416,-11.968000000000004,9.72,-1.6000000000000014,8.047999999999998,45.408,65.976,33.832,17.512,2.4319999999999986
19.991999999999997,9.240000000000002,-8.416,-16.968000000000004,9.72,0.3999999999999986,8.047999999999998,45.408,72.976,35.832,17.512,2.4319999999999986
19.991999999999997,9.240000000000002,-8.416,-16.968000000000004,9.72,0.3999999999999986,8.047999999999998,47.408,75.976,38.832,17.512,2.4319999999999986
19.991999999999997,10.240000000000002,-8.416,-16.968000000000004,9.72,1.3999999999999986,8.047999999999998,49.408,76.976,39.832,17.512,2.4319999999999986
19.991999999999997,11.240000000000002,-6.416,-16.968000000000004,9.72,2.3999999999999986,8.047999999999998,49.408,76.976,39.832,17.512,2.4319999999999986
19.991999999999997,13.240000000000002,-4.416,-16.968000000000004,9.72,4.399999999999999,8.047999999999998,49.408,76.976,39.832,17.512,2.4319999999999986
19.991999999999997,15.240000000000002,-2.4160000000000004,-18.968000000000004,9.72,6.399999999999999,8.047999999999998,49.408,76.976,43.832,17.512,2.4319999999999986
19.991999999999997,18.240000000000002,-0.41600000000000037,-20.968000000000004,9.72,8.399999999999999,8.047999999999998,49.408,77.976,48.832,17.512,2.4319999999999986
19.991999999999997,18.240000000000002,-0.41600000000000037,-20.968000000000004,9.72,8.399999999999999,8.047999999999998,51.408,80.976,50.832,18.512,2.4319999999999986
19.991999999999997,18.240000000000002,-0.41600000000000037,-20.968000000000004,9.72,8.399999999999999,8.047999999999998,53.408,83.976,51.832,20.512,2.4319999999999986
19.991999999999997,21.240000000000002,2.5839999999999996,-20.968000000000004,8.72,10.399999999999999,8.047999999999998,55.408,88.976,53.832,21.512,3.4319999999999986
19.991999999999997,26.240000000000002,7.584,-20.968000000000004,5.720000000000001,12.399999999999999,8.047999999999998,57.408,93.976,56.832,21.512,6.431999999999999
21.991999999999997,28.240000000000002,7.584,-22.968000000000004,5.720000000000001,13.399999999999999,8.047999999999998,57.408,93.976,56.832,21.512,6.431999999999999
23.991999999999997,30.240000000000002,7.584,-24.968000000000004,5.720000000000001,13.399999999999999,8.047999999999998,57.408,93.976,56.832,21.512,6.431999999999999
23.991999999999997,30.240000000000002,7.584,-24.968000000000004,5.720000000000001,13.399999999999999,8.047999999999998,57.408,95.976,58.832,23.512,6.431999999999999
23.991999999999997,30.240000000000002,7.584,-24.968000000000004,5.720000000000001,13.399999999999999,8.047999999999998,57.408,97.976,60.832,24.512,6.431999999999999
23.991999999999997,32.24,8.584,-26.968000000000004,5.720000000000001,16.4,8.047999999999998,59.408,99.976,60.832,25.512,6.431999999999999
23.991999999999997,34.24,11.584,-28.968000000000004,5.720000000000001,21.4,8.047999999999998,62.408,101.976,60.832,25.512,6.431999999999999
23.991999999999997,34.24,11.584,-28.968000000000004,5.720000000000001,21.4,8.047999999999998,62.408,104.976,63.832,27.512,9.431999999999999
23.991999999999997,34.24,11.584,-28.968000000000004,5.720000000000001,21.4,8.047999999999998,63.408,106.976,65.832,29.512,10.431999999999999
23.991999999999997,34.24,11.584,-28.968000000000004,5.720000000000001,21.4,8.047999999999998,66.408,108.976,67.832,29.512,10.431999999999999
23.991999999999997,34.24,11.584,-28.968000000000004,5.720000000000001,21.4,8.047999999999998,69.408,109.976,68.832,29.512,10.431999999999999
25.991999999999997,36.24,11.584,-30.968000000000004,5.720000000000001,23.4,6.047999999999998,70.408,110.976,69.832,29.512,10.431999999999999
27.991999999999997,39.24,11.584,-32.968,5.720000000000001,25.4,4.047999999999998,70.408,110.976,69.832,29.512,11.431999999999999
27.991999999999997,41.24,13.584,-32.968,5.720000000000001,28.4,4.047999999999998,70.408,112.976,77.832,32.512,13.431999999999999
27.991999999999997,43.24,16.584,-34.968,5.720000000000001,29.4,3.0479999999999983,70.408,114.976,81.832,33.512,15.431999999999999
27.991999999999997,45.24,17.584,-37.968,5.720000000000001,31.4,0.047999999999998266,70.408,114.976,81.832,33.512,15.431999999999999
27.991999999999997,47.24,19.584,-40.968,5.720000000000001,32.4,-3.9520000000000017,70.408,114.976,81.832,33.512,15.431999999999999
29.991999999999997,47.24,19.584,-41.968,5.720000000000001,33.4,-3.9520000000000017,70.408,118.976,83.832,33.512,15.431999999999999
32.992,47.24,19.584,-41.968,5.720000000000001,33.4,-3.9520000000000017,70.408,123.976,86.832,34.512,15.431999999999999
32.992,51.24,19.584,-43.968,5.720000000000001,33.4,-3.9520000000000017,72.408,124.976,87.832,37.512,15.431999999999999
32.992,54.24,19.584,-44.968,5.720000000000001,33.4,-3.9520000000000017,74.408,126.976,89.832,40.512,15.431999999999999
32.992,55.24,19.584,-45.968,5.720000000000001,33.4,-0.9520000000000017,74.408,128.976,91.832,43.512,16.432
32.992,55.24,19.584,-45.968,5.720000000000001,33.4,3.0479999999999983,74.408,131.976,94.832,46.512,19.432
36.992,57.24,19.584,-47.968,5.720000000000001,35.4,4.047999999999998,74.408,133.976,94.832,46.512,19.432
40.992,59.24,19.584,-49.968,5.720000000000001,37.4,4.047999999999998,75.408,136.976,95.832,46.512,19.432
40.992,59.24,19.584,-49.968,5.720000000000001,37.4,4.047999999999998,76.408,137.976,98.832,46.512,19.432
40.992,59.24,19.584,-49.968,5.720000000000001,37.4,4.047999999999998,78.408,139.976,101.832,46.512,19.432
40.992,60.24,21.584,-49.968,5.720000000000001,40.4,4.047999999999998,80.408,143.976,106.832,48.512,22.432
40.992,63.24,23.584,-49.968,5.720000000000001,45.4,4.047999999999998,83.408,148.976,111.832,50.512,27.432
42.992,63.24,23.584,-52.968,5.720000000000001,45.4,4.047999999999998,83.408,150.976,113.832,50.512,27.432
44.992,63.24,23.584,-53.968,5.720000000000001,45.4,4.047999999999998,83.408,153.976,116.832,51.512,27.432
44.992,65.24000000000001,23.584,-53.968,5.720000000000001,45.4,4.047999999999998,85.408,154.976,117.832,52.512,27.432
44.992,67.24000000000001,23.584,-53.968,5.720000000000001,45.4,4.047999999999998,87.408,156.976,119.832,54.512,27.432
44.992,69.24000000000001,27.584,-54.968,5.720000000000001,47.4,4.047999999999998,87.408,158.976,125.832,55.512,29.432
44.992,71.24000000000001,32.584,-57.968,5.720000000000001,50.4,4.047999999999998,87.408,161.976,132.832,58.512,31.432
47.992,71.24000000000001,32.584,-57.968,5.720000000000001,50.4,4.047999999999998,87.408,163.976,132.832,58.512,31.432
48.992,73.24000000000001,32.584,-57.968,5.720000000000001,50.4,4.047999999999998,88.408,165.976,133.832,59.512,31.432
48.992,76.24000000000001,32.584,-59.968,5.720000000000001,52.4,4.047999999999998,89.408,167.976,134.832,62.512,31.432
