I,II,III,aVR,aVL,aVF,V1,V2,V3,V4,V5,V6
-52.88,-93.384,-43.216,72.432,-5.392,-66.8,46.552,-49.216,-108.104,-88.064,-105.16,-89.744
-52.88,-93.384,-43.216,72.432,-5.392,-66.8,45.552,-49.216,-108.104,-88.064,-105.16,-89.744
-52.88,-93.384,-43.216,72.432,-5.392,-66.8,43.552,-49.216,-109.104,-88.064,-106.16,-89.744
-52.88,-93.384,-43.216,72.432,-5.392,-66.8,41.552,-49.216,-110.104,-88.064,-106.16,-89.744
-52.88,-93.384,-43.216,72.432,-5.392,-66.8,39.552,-49.216,-110.104,-88.064,-107.16,-89.744
-52.88,-93.384,-43.216,72.432,-5.392,-66.8,37.552,-49.216,-111.104,-88.064,-107.16,-89.744
-52.88,-93.384,-43.216,72.432,-5.392,-66.8,35.552,-49.216,-112.104,-88.064,-108.16,-89.744
-52.88,-93.384,-43.216,72.432,-5.392,-66.8,34.552,-49.216,-112.104,-88.064,-108.16,-89.744
-52.88,-92.384,-43.216,71.432,-5.392,-66.8,39.552,-46.216,-111.104,-88.064,-108.16,-87.744
-51.88,-91.384,-42.216,70.432,-5.392,-65.8,44.552,-43.216,-110.104,-89.064,-107.16,-84.744
-50.88,-90.384,-41.216,69.432,-5.392,-64.8,49.552,-40.216,-109.104,-90.064,-106.16,-81.744
-49.88,-88.384,-40.216,68.432,-5.392,-63.8,54.552,-37.216,-108.104,-90.064,-105.16,-79.744
-48.88,-87.384,-39.216,67.432,-5.392,-62.8,60.552,-34.216,-107.104,-91.064,-105.16,-76.744
-47.88,-86.384,-38.216,66.432,-5.392,-61.8,65.55199999999999,-31.216,-106.104,-92.064,-104.16,-73.744
-46.88,-85.384,-38.216,65.432,-5.392,-60.8,70.55199999999999,-28.216,-105.104,-92.064,-104.16,-71.744
-50.88,-101.384,-49.216,74.432,-0.39200000000000035,-74.8,92.55199999999999,10.783999999999999,-115.104,-113.064,-122.16,-89.744
-54.88,-118.384,-62.216,85.432,3.6079999999999997,-89.8,113.55199999999999,49.784,-127.104,-133.064,-141.16,-107.744
-59.88,-135.38400000000001,-75.21600000000001,96.432,8.608,-104.8,135.552,88.78399999999999,-138.10399999999998,-153.064,-161.16,-126.744
-63.88,-153.38400000000001,-88.21600000000001,107.432,12.608,-119.8,156.552,127.78399999999999,-150.10399999999998,-173.064,-180.16,-145.744
-68.88,-170.38400000000001,-101.21600000000001,118.432,17.608,-134.8,177.552,165.784,-161.10399999999998,-193.064,-199.16,-164.744
-73.88,-187.38400000000001,-114.21600000000001,129.43200000000002,21.608,-149.8,199.552,204.784,-173.10399999999998,-213.064,-219.16,-182.744
-77.88,-204.38400000000001,-126.21600000000001,139.43200000000002,25.608,-164.8,220.552,243.784,-184.10399999999998,-233.064,-238.16,-201.744
-51.88,-137.38400000000001,-87.21600000000001,92.432,19.608,-111.8,224.552,320.784,-53.104,-139.064,-178.16,-155.744
-23.880000000000003,-71.384,-47.216,46.432,13.608,-58.8,228.552,398.784,81.896,-45.06399999999999,-116.16,-109.744
4.119999999999997,-3.3840000000000003,-8.216000000000001,-1.5679999999999978,7.608,-4.799999999999997,232.552,475.784,215.89600000000002,49.93600000000001,-56.16,-63.744
32.12,64.616,31.784,-49.568,1.6079999999999997,49.2,235.552,552.784,349.896,144.936,4.840000000000003,-16.744
60.12,131.61599999999999,70.78399999999999,-97.568,-4.392,103.2,239.552,630.784,483.896,239.936,65.84,30.256
88.12,199.61599999999999,110.78399999999999,-144.56799999999998,-9.392,157.2,243.552,707.784,617.896,334.93600000000004,127.84,76.256
116.12,267.616,150.784,-192.56799999999998,-15.392,211.2,246.552,785.784,751.896,429.93600000000004,188.84,123.256
177.12,391.616,198.784,-283.568,-8.392,309.2,165.552,711.784,914.896,602.936,333.84000000000003,249.256
239.12,516.616,246.784,-374.568,-2.3920000000000003,408.2,83.55199999999999,636.784,1077.896,775.936,480.84000000000003,376.256
300.12,641.616,294.784,-466.568,5.608,507.2,3.5519999999999996,561.784,1240.896,948.936,627.84,503.256
362.12,766.616,342.784,-557.568,12.608,606.2,-78.44800000000001,485.784,1403.896,1121.936,773.84,630.256
424.12,892.616,390.784,-648.568,20.608,704.2,-160.448,410.784,1566.896,1294.936,920.84,757.256
485.12,1017.616,438.784,-740.568,27.608,803.2,-242.448,335.784,1729.896,1467.936,1067.84,884.256
547.12,1142.616,486.784,-831.568,34.608,902.2,-324.448,260.784,1892.896,1640.936,1213.84,1011.256
492.12,1077.616,514.784,-773.568,4.608,860.2,-427.448,-26.216,1627.896,1509.936,1155.84,976.256
437.12,1010.616,541.784,-714.568,-25.392,816.2,-530.448,-314.216,1355.896,1374.936,1093.84,939.256
381.12,942.616,569.784,-654.568,-56.392,771.2,-633.448,-603.216,1084.896,1239.936,1032.84,902.256
325.12,875.616,597.784,-594.568,-86.392,727.2,-736.448,-893.216,812.896,1105.936,970.84,865.256
269.12,807.616,625.784,-534.568,-117.392,683.2,-840.448,-1182.216,541.896,970.936,909.84,828.256
213.12,740.616,652.784,-474.568,-148.392,638.2,-943.448,-1471.216,270.896,835.936,847.84,791.256
157.12,673.616,680.784,-414.568,-179.392,594.2,-1046.448,-1761.216,-1.1039999999999992,700.936,785.84,754.256
131.12,555.616,566.784,-343.568,-146.392,489.2,-975.448,-1646.216,-103.104,572.936,675.84,659.256
104.12,436.616,449.784,-271.568,-112.392,384.2,-902.448,-1524.216,-202.10399999999998,445.93600000000004,563.84,562.256
78.12,318.616,332.784,-199.56799999999998,-77.392,278.2,-829.448,-1402.216,-301.104,317.93600000000004,452.84000000000003,465.256
51.12,199.61599999999999,215.784,-127.568,-43.392,172.2,-756.448,-1281.216,-400.104,190.936,340.84000000000003,369.256
25.119999999999997,81.616,98.78399999999999,-55.568,-9.392,66.2,-682.448,-1159.216,-500.104,63.93600000000001,229.84,272.256
-1.8800000000000026,-37.384,-17.216,16.432000000000002,24.608,-39.8,-609.448,-1037.216,-599.104,-64.064,117.84,176.256
-27.880000000000003,-154.38400000000001,-133.216,87.432,58.608,-143.8,-536.448,-916.216,-699.104,-190.064,6.840000000000003,79.256
-26.880000000000003,-147.38400000000001,-127.21600000000001,83.432,55.608,-137.8,-475.448,-813.216,-632.104,-181.064,-6.159999999999997,64.256
-24.880000000000003,-138.38400000000001,-118.21600000000001,78.432,51.608,-127.8,-414.448,-712.216,-562.104,-169.064,-16.159999999999997,49.256
-22.880000000000003,-128.38400000000001,-110.21600000000001,73.432,47.608,-118.8,-354.448,-610.216,-492.104,-157.064,-27.159999999999997,35.256
-20.880000000000003,-119.384,-101.21600000000001,68.432,43.608,-109.8,-293.448,-508.216,-421.104,-145.064,-38.16,21.256
-18.880000000000003,-110.384,-92.21600000000001,63.432,39.608,-100.8,-232.448,-406.216,-351.104,-133.064,-48.16,7.256
-16.880000000000003,-100.384,-83.21600000000001,58.432,35.608,-91.8,-172.448,-304.216,-281.104,-122.064,-59.16,-6.744
-15.880000000000003,-92.384,-75.21600000000001,53.432,31.608,-82.8,-111.44800000000001,-202.216,-211.10399999999998,-110.064,-69.16,-20.744
-14.880000000000003,-82.384,-66.21600000000001,47.432,27.608,-72.8,-92.44800000000001,-167.216,-188.10399999999998,-99.064,-66.16,-20.744
-13.880000000000003,-73.384,-57.216,42.432,23.608,-63.8,-74.44800000000001,-134.216,-166.10399999999998,-88.064,-63.16,-19.744
-12.880000000000003,-64.384,-48.216,37.432,19.608,-53.8,-55.448,-100.21600000000001,-144.10399999999998,-79.064,-60.16,-18.744
-11.880000000000003,-55.384,-40.216,31.432000000000002,15.608,-43.8,-37.448,-67.21600000000001,-121.104,-68.064,-57.16,-18.744
-10.880000000000003,-45.384,-31.216,26.432000000000002,11.608,-33.8,-19.448,-35.216,-100.104,-57.06399999999999,-54.16,-17.744
-9.880000000000003,-36.384,-23.216,21.432000000000002,7.608,-24.799999999999997,-1.4480000000000004,-2.216000000000001,-78.104,-46.06399999999999,-51.16,-16.744
-8.880000000000003,-27.384,-14.216000000000001,16.432000000000002,3.6079999999999997,-14.799999999999997,16.552,31.784,-56.104,-36.06399999999999,-48.16,-16.744
-6.880000000000003,-24.384,-15.216000000000001,14.432000000000002,4.608,-15.799999999999997,20.552,39.784,-50.104,-33.06399999999999,-45.16,-16.744
-4.880000000000003,-22.384,-16.216,12.432000000000002,5.608,-16.799999999999997,23.552,46.784,-45.104,-31.063999999999993,-43.16,-17.744
-2.8800000000000026,-19.384,-18.216,10.432000000000002,7.608,-17.799999999999997,26.552,53.784,-40.104,-29.063999999999993,-41.16,-18.744
-1.8800000000000026,-17.384,-19.216,9.432000000000002,8.608,-18.799999999999997,30.552,60.784,-35.104,-27.063999999999993,-39.16,-19.744
0.11999999999999744,-14.384,-21.216,7.432000000000002,10.608,-19.799999999999997,33.552,68.78399999999999,-30.104,-25.063999999999993,-37.16,-20.744
2.1199999999999974,-12.384,-22.216,5.432000000000002,11.608,-20.799999999999997,36.552,75.78399999999999,-25.104,-23.063999999999993,-35.16,-21.744
3.1199999999999974,-10.384,-23.216,4.432000000000002,12.608,-21.799999999999997,39.552,82.78399999999999,-20.104,-21.063999999999993,-33.16,-21.744
2.1199999999999974,-11.384,-21.216,5.432000000000002,11.608,-21.799999999999997,42.552,85.78399999999999,-18.104,-20.063999999999993,-33.16,-23.744
0.11999999999999744,-12.384,-19.216,6.432000000000002,9.608,-20.799999999999997,45.552,87.78399999999999,-16.104,-19.063999999999993,-34.16,-25.744
-0.8800000000000026,-13.384,-16.216,7.432000000000002,7.608,-19.799999999999997,47.552,90.78399999999999,-14.104,-18.063999999999993,-35.16,-27.744
-2.8800000000000026,-15.384,-14.216000000000001,8.432000000000002,5.608,-18.799999999999997,50.552,92.78399999999999,-13.104,-17.063999999999993,-36.16,-28.744
-3.8800000000000026,-16.384,-11.216000000000001,9.432000000000002,3.6079999999999997,-17.799999999999997,53.552,95.78399999999999,-11.104,-16.063999999999993,-37.16,-30.744
-5.880000000000003,-17.384,-9.216000000000001,10.432000000000002,1.6079999999999997,-16.799999999999997,56.552,97.78399999999999,-9.104,-15.063999999999993,-38.16,-32.744
-6.880000000000003,-18.384,-7.216000000000001,11.432000000000002,0.6079999999999997,-15.799999999999997,58.552,99.78399999999999,-8.104,-15.063999999999993,-38.16,-33.744
-4.880000000000003,-16.384,-7.216000000000001,9.432000000000002,1.6079999999999997,-12.799999999999997,56.552,105.78399999999999,-3.103999999999999,-11.063999999999993,-35.16,-30.744
-2.8800000000000026,-13.384,-7.216000000000001,6.432000000000002,2.6079999999999997,-10.799999999999997,54.552,110.78399999999999,0.8960000000000008,-7.063999999999993,-31.159999999999997,-26.744
0.11999999999999744,-10.384,-7.216000000000001,3.432000000000002,3.6079999999999997,-8.799999999999997,51.552,116.78399999999999,5.896000000000001,-3.063999999999993,-27.159999999999997,-23.744
2.1199999999999974,-7.384,-7.216000000000001,1.4320000000000022,5.608,-5.799999999999997,49.552,122.78399999999999,10.896,-0.06399999999999295,-23.159999999999997,-19.744
5.119999999999997,-4.384,-7.216000000000001,-1.5679999999999978,6.608,-3.799999999999997,46.552,127.78399999999999,14.896,3.936000000000007,-19.159999999999997,-16.744
7.119999999999997,-1.3840000000000003,-7.216000000000001,-4.567999999999998,7.608,-1.7999999999999972,45.552,133.784,19.896,7.936000000000007,-15.159999999999997,-12.744
9.119999999999997,0.6159999999999997,-7.216000000000001,-6.567999999999998,8.608,0.20000000000000284,43.552,138.784,23.896,10.936000000000007,-12.159999999999997,-9.744
13.119999999999997,1.6159999999999997,-10.216000000000001,-8.567999999999998,11.608,-0.7999999999999972,43.552,141.784,28.896,13.936000000000007,-9.159999999999997,-5.744
16.119999999999997,2.6159999999999997,-13.216000000000001,-10.567999999999998,14.608,-1.7999999999999972,44.552,144.784,33.896,16.936000000000007,-6.159999999999997,-2.7439999999999998
19.119999999999997,3.6159999999999997,-16.216,-12.567999999999998,17.608,-3.799999999999997,45.552,147.784,37.896,19.936000000000007,-4.159999999999997,0.2560000000000002
23.119999999999997,3.6159999999999997,-18.216,-13.567999999999998,20.608,-4.799999999999997,46.552,150.784,42.896,22.936000000000007,-1.1599999999999966,3.2560000000000002
26.119999999999997,4.616,-21.216,-15.567999999999998,23.608,-6.799999999999997,46.552,153.784,47.896,25.936000000000007,0.8400000000000034,6.256
29.119999999999997,5.616,-24.216,-17.567999999999998,26.608,-7.799999999999997,47.552,156.784,52.896,28.936000000000007,3.8400000000000034,9.256
32.12,5.616,-26.216,-18.567999999999998,29.608,-8.799999999999997,48.552,158.784,56.896,31.936000000000007,5.840000000000003,12.256
34.12,9.616,-25.216,-21.567999999999998,29.608,-6.799999999999997,46.552,162.784,60.896,34.93600000000001,6.840000000000003,12.256
35.12,12.616,-23.216,-23.567999999999998,29.608,-3.799999999999997,43.552,166.784,63.896,36.93600000000001,7.840000000000003,11.256
37.12,16.616,-21.216,-26.567999999999998,28.608,-0.7999999999999972,40.552,170.784,67.896,38.93600000000001,8.840000000000003,10.256
38.12,19.616,-19.216,-28.567999999999998,28.608,1.2000000000000028,36.552,174.784,71.896,40.93600000000001,8.840000000000003,10.256
40.12,23.616,-17.216,-31.567999999999998,27.608,4.200000000000003,33.552,178.784,74.896,42.93600000000001,9.840000000000003,9.256
41.12,26.616,-15.216000000000001,-33.568,27.608,7.200000000000003,30.552,182.784,78.896,44.93600000000001,10.840000000000003,8.256
42.12,29.616,-13.216000000000001,-35.568,27.608,9.200000000000003,27.552,186.784,81.896,46.93600000000001,10.840000000000003,8.256
47.12,35.616,-12.216000000000001,-41.568,29.608,12.200000000000003,23.552,194.784,90.896,53.93600000000001,16.840000000000003,12.256
52.12,40.616,-12.216000000000001,-46.568,32.608,15.200000000000003,19.552,202.784,99.896,61.93600000000001,23.840000000000003,17.256
57.12,46.616,-12.216000000000001,-52.568,34.608,18.200000000000003,15.552,210.784,109.896,68.936,29.840000000000003,21.256
62.12,51.616,-11.216000000000001,-57.568,37.608,21.200000000000003,11.552,218.784,118.896,75.936,35.84,26.256
67.12,56.616,-11.216000000000001,-62.568,39.608,24.200000000000003,7.552,226.784,127.896,83.936,41.84,31.256
72.12,62.616,-11.216000000000001,-68.568,42.608,27.200000000000003,3.5519999999999996,234.784,136.89600000000002,90.936,47.84,36.256
77.12,67.616,-11.216000000000001,-73.568,44.608,29.200000000000003,-0.4480000000000004,242.784,145.89600000000002,97.936,53.84,40.256
79.12,71.616,-9.216000000000001,-76.568,44.608,32.2,2.5519999999999996,251.784,154.89600000000002,104.936,58.84,44.256
80.12,74.616,-8.216000000000001,-78.568,43.608,35.2,5.552,259.784,163.89600000000002,111.936,62.84,47.256
82.12,77.616,-6.216000000000001,-80.568,42.608,38.2,9.552,267.784,171.89600000000002,117.936,67.84,51.256
83.12,80.616,-5.216000000000001,-82.568,41.608,40.2,13.552,276.784,180.89600000000002,124.936,71.84,54.256
85.12,84.616,-3.216000000000001,-84.568,40.608,43.2,16.552,284.784,189.89600000000002,131.936,75.84,57.256
86.12,87.616,-2.216000000000001,-86.568,39.608,46.2,20.552,293.784,197.89600000000002,137.936,80.84,61.256
87.12,90.616,-1.216000000000001,-88.568,38.608,48.2,23.552,301.784,206.89600000000002,144.936,84.84,64.256
93.12,98.616,1.783999999999999,-95.568,40.608,53.2,19.552,312.784,219.89600000000002,153.936,91.84,71.256
98.12,105.616,3.783999999999999,-101.568,43.608,57.2,14.552,324.784,232.89600000000002,163.936,98.84,77.256
104.12,112.616,5.783999999999999,-108.568,45.608,62.2,10.552,335.784,245.89600000000002,172.936,105.84,84.256
110.12,120.616,8.783999999999999,-114.568,48.608,67.2,5.552,346.784,258.896,182.936,112.84,90.256
115.12,127.616,10.783999999999999,-121.568,50.608,71.2,0.5519999999999996,357.784,271.896,191.936,118.84,97.256
121.12,135.61599999999999,12.783999999999999,-128.56799999999998,53.608,76.2,-4.448,369.784,284.896,201.936,125.84,104.256
126.12,142.61599999999999,14.783999999999999,-134.56799999999998,55.608,80.2,-8.448,380.784,297.896,210.936,132.84,110.256
137.12,153.61599999999999,15.783999999999999,-145.56799999999998,60.608,86.2,-12.448,397.784,316.896,227.936,143.84,118.256
147.12,163.61599999999999,16.784,-155.56799999999998,66.608,91.2,-17.448,415.784,335.896,243.936,155.84,127.256
158.12,174.61599999999999,17.784,-166.56799999999998,71.608,97.2,-21.448,433.784,354.896,260.93600000000004,166.84,135.256
168.12,185.61599999999999,18.784,-176.56799999999998,76.608,103.2,-25.448,450.784,374.896,277.93600000000004,178.84,143.256
179.12,196.61599999999999,19.784,-187.56799999999998,81.608,108.2,-29.448,468.784,393.896,294.93600000000004,189.84,152.256
189.12,206.61599999999999,20.784,-197.56799999999998,86.608,114.2,-33.448,486.784,412.896,311.93600000000004,200.84,160.256
200.12,217.61599999999999,20.784,-208.56799999999998,91.608,119.2,-37.448,504.784,431.896,328.93600000000004,212.84,168.256
209.12,229.61599999999999,24.784,-219.56799999999998,94.608,127.2,-43.448,520.784,453.896,345.93600000000004,224.84,177.256
217.12,242.61599999999999,27.784,-229.56799999999998,96.608,135.2,-50.448,536.784,476.896,362.93600000000004,235.84,187.256
226.12,255.61599999999999,31.784,-240.56799999999998,99.608,143.2,-56.448,552.784,498.896,379.93600000000004,247.84,196.256
235.12,267.616,34.784,-251.56799999999998,101.608,152.2,-62.448,568.784,520.896,396.93600000000004,259.84000000000003,205.256
244.12,280.616,37.784,-261.568,104.608,160.2,-69.44800000000001,584.784,542.896,413.93600000000004,270.84000000000003,214.256
252.12,292.616,41.784,-272.568,106.608,168.2,-75.44800000000001,600.784,564.896,430.93600000000004,282.84000000000003,224.256
261.12,305.616,44.784,-283.568,108.608,176.2,-81.44800000000001,616.784,586.896,448.93600000000004,294.84000000000003,233.256
271.12,318.616,48.784,-295.568,111.608,185.2,-87.44800000000001,630.784,608.896,466.93600000000004,307.84000000000003,242.256
280.12,332.616,52.784,-306.568,114.608,193.2,-92.44800000000001,643.784,629.896,483.93600000000004,320.84000000000003,250.256
290.12,346.616,56.784,-318.568,117.608,202.2,-98.44800000000001,657.784,651.896,501.93600000000004,334.84000000000003,259.256
300.12,360.616,60.784,-330.568,120.608,211.2,-103.44800000000001,671.784,673.896,519.936,347.84000000000003,267.256
310.12,373.616,64.78399999999999,-341.568,123.608,220.2,-109.44800000000001,685.784,694.896,537.936,360.84000000000003,276.256
319.12,387.616,67.78399999999999,-353.568,126.608,228.2,-115.44800000000001,699.784,716.896,555.936,373.84000000000003,284.256
329.12,401.616,71.78399999999999,-365.568,129.608,237.2,-120.44800000000001,713.784,737.896,573.936,387.84000000000003,293.256
336.12,409.616,73.78399999999999,-372.568,132.608,242.2,-125.44800000000001,725.784,756.896,590.936,399.84000000000003,302.256
342.12,417.616,75.78399999999999,-379.568,134.608,248.2,-130.448,738.784,775.896,606.936,410.84000000000003,311.256
348.12,425.616,77.78399999999999,-386.568,136.608,253.2,-136.448,750.784,794.896,623.936,422.84000000000003,320.256
355.12,432.616,79.78399999999999,-393.568,139.608,258.2,-141.448,763.784,812.896,639.936,434.84000000000003,328.256
361.12,440.616,81.78399999999999,-400.568,141.608,264.2,-146.448,776.784,831.896,656.936,445.84000000000003,337.256
368.12,448.616,83.78399999999999,-407.568,143.608,269.2,-151.448,788.784,850.896,672.936,457.84000000000003,346.256
374.12,456.616,84.78399999999999,-414.568,145.608,274.2,-156.448,801.784,868.896,688.936,469.84000000000003,355.256
376.12,458.616,83.78399999999999,-416.568,147.608,275.2,-155.448,799.784,872.896,693.936,472.84000000000003,358.256
379.12,460.616,82.78399999999999,-418.568,148.608,275.2,-154.448,796.784,875.896,696.936,474.84000000000003,361.256
381.12,462.616,80.78399999999999,-420.568,150.608,275.2,-152.448,794.784,878.896,700.936,477.84000000000003,364.256
383.12,463.616,79.78399999999999,-422.568,151.608,276.2,-151.448,791.784,881.896,704.936,480.84000000000003,367.256
385.12,465.616,77.78399999999999,-424.568,153.608,276.2,-149.448,789.784,884.896,707.936,482.84000000000003,370.256
387.12,467.616,76.78399999999999,-426.568,154.608,276.2,-148.448,786.784,887.896,711.936,485.84000000000003,372.256
389.12,468.616,75.78399999999999,-427.568,155.608,276.2,-147.448,784.784,890.896,714.936,487.84000000000003,375.256
383.12,462.616,76.78399999999999,-421.568,152.608,274.2,-141.448,775.784,877.896,701.936,477.84000000000003,368.256
375.12,455.616,77.78399999999999,-414.568,147.608,270.2,-136.448,767.784,862.896,686.936,466.84000000000003,360.256
368.12,449.616,78.78399999999999,-407.568,143.608,267.2,-131.448,758.784,847.896,671.936,454.84000000000003,352.256
360.12,442.616,80.78399999999999,-400.568,139.608,264.2,-125.44800000000001,749.784,833.896,657.936,443.84000000000003,343.256
353.12,435.616,81.78399999999999,-394.568,135.608,261.2,-120.44800000000001,740.784,818.896,642.936,432.84000000000003,335.256
345.12,429.616,82.78399999999999,-387.568,131.608,258.2,-114.44800000000001,732.784,803.896,627.936,420.84000000000003,327.256
338.12,422.616,83.78399999999999,-380.568,127.608,255.2,-109.44800000000001,723.784,788.896,612.936,409.84000000000003,319.256
322.12,405.616,82.78399999999999,-363.568,120.608,245.2,-102.44800000000001,703.784,758.896,586.936,389.84000000000003,304.256
306.12,387.616,80.78399999999999,-346.568,112.608,235.2,-94.44800000000001,683.784,726.896,560.936,369.84000000000003,288.256
290.12,369.616,79.78399999999999,-329.568,105.608,226.2,-87.44800000000001,663.784,694.896,533.936,348.84000000000003,272.256
273.12,351.616,77.78399999999999,-312.568,98.608,216.2,-79.44800000000001,642.784,662.896,506.93600000000004,328.84000000000003,256.256
257.12,333.616,76.78399999999999,-295.568,91.608,206.2,-72.44800000000001,622.784,630.896,480.93600000000004,307.84000000000003,240.256
241.12,315.616,74.78399999999999,-278.568,83.608,196.2,-64.44800000000001,601.784,598.896,453.93600000000004,286.84000000000003,224.256
225.12,297.616,73.78399999999999,-261.568,76.608,186.2,-57.448,581.784,567.896,426.93600000000004,266.84000000000003,208.256
211.12,279.616,68.78399999999999,-245.56799999999998,72.608,175.2,-50.448,555.784,534.896,399.93600000000004,247.84,193.256
198.12,262.616,63.784,-230.56799999999998,68.608,164.2,-42.448,530.784,502.896,371.93600000000004,228.84,179.256
185.12,244.61599999999999,59.784,-215.56799999999998,64.608,153.2,-35.448,504.784,469.896,344.93600000000004,209.84,165.256
172.12,227.61599999999999,54.784,-199.56799999999998,60.608,142.2,-27.448,478.784,437.896,317.93600000000004,190.84,151.256
159.12,210.61599999999999,49.784,-184.56799999999998,56.608,131.2,-20.448,452.784,405.896,289.93600000000004,172.84,137.256
146.12,192.61599999999999,45.784,-169.56799999999998,52.608,120.2,-12.448,426.784,372.896,262.93600000000004,153.84,123.256
133.12,175.61599999999999,40.784,-154.56799999999998,48.608,109.2,-5.448,400.784,340.896,234.936,134.84,109.256
122.12,161.61599999999999,38.784,-141.56799999999998,43.608,101.2,-3.4480000000000004,376.784,314.896,214.936,120.84,99.256
111.12,148.61599999999999,36.784,-129.56799999999998,38.608,93.2,-1.4480000000000004,351.784,289.896,194.936,107.84,89.256
100.12,134.61599999999999,34.784,-116.568,33.608,85.2,0.5519999999999996,327.784,263.896,174.936,94.84,79.256
89.12,121.616,32.784,-104.568,28.608,78.2,2.5519999999999996,303.784,238.89600000000002,154.936,81.84,69.256
78.12,107.616,30.784,-91.568,24.608,70.2,4.552,278.784,213.89600000000002,135.936,68.84,59.256
66.12,94.616,28.784,-79.568,19.608,62.2,6.552,254.784,188.89600000000002,115.936,55.84,48.256
55.12,80.616,26.784,-66.568,14.608,54.2,7.552,229.784,162.89600000000002,95.936,42.84,38.256
49.12,71.616,23.784,-59.568,12.608,48.2,11.552,213.784,146.89600000000002,83.936,35.84,32.256
43.12,62.616,20.784,-51.568,10.608,42.2,14.552,197.784,131.89600000000002,72.936,28.840000000000003,26.256
37.12,54.616,17.784,-44.568,9.608,36.2,18.552,181.784,116.896,61.93600000000001,21.840000000000003,20.256
31.119999999999997,45.616,14.783999999999999,-37.568,7.608,30.200000000000003,21.552,165.784,100.896,50.93600000000001,13.840000000000003,14.256
25.119999999999997,36.616,11.783999999999999,-30.567999999999998,6.608,24.200000000000003,24.552,149.784,85.896,39.93600000000001,6.840000000000003,8.256
19.119999999999997,27.616,8.783999999999999,-22.567999999999998,4.608,18.200000000000003,28.552,134.784,70.896,28.936000000000007,-0.1599999999999966,2.2560000000000002
13.119999999999997,18.616,5.783999999999999,-15.567999999999998,3.6079999999999997,12.200000000000003,31.552,118.78399999999999,55.896,17.936000000000007,-7.159999999999997,-3.7439999999999998
10.119999999999997,14.616,3.783999999999999,-12.567999999999998,2.6079999999999997,9.200000000000003,28.552,108.78399999999999,46.896,12.936000000000007,-11.159999999999997,-7.744
7.119999999999997,10.616,2.783999999999999,-9.567999999999998,1.6079999999999997,7.200000000000003,25.552,99.78399999999999,39.896,6.936000000000007,-14.159999999999997,-10.744
4.119999999999997,7.616,1.783999999999999,-6.567999999999998,1.6079999999999997,5.200000000000003,22.552,89.78399999999999,31.896,1.936000000000007,-18.159999999999997,-13.744
1.1199999999999974,3.6159999999999997,0.7839999999999989,-3.567999999999998,0.6079999999999997,3.200000000000003,19.552,80.78399999999999,24.896,-3.063999999999993,-22.159999999999997,-16.744
-1.8800000000000026,-0.38400000000000034,-0.21600000000000108,-0.5679999999999978,0.6079999999999997,0.20000000000000284,15.552,71.78399999999999,16.896,-9.063999999999993,-25.159999999999997,-20.744
-3.8800000000000026,-4.384,-1.216000000000001,2.432000000000002,-0.39200000000000035,-1.7999999999999972,12.552,62.784,9.896,-14.063999999999993,-29.159999999999997,-23.744
-6.880000000000003,-7.384,-2.216000000000001,5.432000000000002,-0.39200000000000035,-3.799999999999997,9.552,52.784,1.8960000000000008,-19.063999999999993,-32.16,-26.744
-7.880000000000003,-9.384,-3.216000000000001,7.432000000000002,-1.3920000000000003,-5.799999999999997,10.552,46.784,-3.103999999999999,-24.063999999999993,-34.16,-27.744
-8.880000000000003,-11.384,-4.216000000000001,9.432000000000002,-1.3920000000000003,-6.799999999999997,13.552,41.784,-8.104,-28.063999999999993,-36.16,-27.744
-9.880000000000003,-13.384,-5.216000000000001,10.432000000000002,-2.3920000000000003,-7.799999999999997,15.552,36.784,-13.104,-33.06399999999999,-38.16,-27.744
-10.880000000000003,-15.384,-5.216000000000001,12.432000000000002,-2.3920000000000003,-8.799999999999997,17.552,30.784,-18.104,-37.06399999999999,-40.16,-27.744
-11.880000000000003,-17.384,-6.216000000000001,13.432000000000002,-3.3920000000000003,-9.799999999999997,19.552,25.784,-22.104,-42.06399999999999,-42.16,-27.744
-12.880000000000003,-18.384,-7.216000000000001,15.432000000000002,-3.3920000000000003,-10.799999999999997,21.552,19.784,-27.104,-47.06399999999999,-43.16,-27.744
-13.880000000000003,-20.384,-7.216000000000001,16.432000000000002,-3.3920000000000003,-11.799999999999997,23.552,14.783999999999999,-32.104,-51.06399999999999,-45.16,-27.744
-14.880000000000003,-22.384,-9.216000000000001,18.432000000000002,-3.3920000000000003,-13.799999999999997,25.552,10.783999999999999,-34.104,-50.06399999999999,-46.16,-28.744
-15.880000000000003,-24.384,-10.216000000000001,19.432000000000002,-3.3920000000000003,-15.799999999999997,26.552,6.783999999999999,-36.104,-49.06399999999999,-47.16,-29.744
-16.880000000000003,-26.384,-11.216000000000001,20.432000000000002,-3.3920000000000003,-16.799999999999997,27.552,2.783999999999999,-37.104,-48.06399999999999,-47.16,-30.744
-16.880000000000003,-27.384,-12.216000000000001,22.432000000000002,-2.3920000000000003,-18.799999999999997,28.552,-1.216000000000001,-39.104,-47.06399999999999,-48.16,-31.744
-17.880000000000003,-29.384,-13.216000000000001,23.432000000000002,-2.3920000000000003,-19.799999999999997,29.552,-4.216000000000001,-40.104,-46.06399999999999,-48.16,-32.744
-18.880000000000003,-31.384,-14.216000000000001,24.432000000000002,-2.3920000000000003,-21.799999999999997,30.552,-8.216000000000001,-42.104,-45.06399999999999,-49.16,-33.744
-18.880000000000003,-32.384,-15.216000000000001,25.432000000000002,-2.3920000000000003,-22.799999999999997,31.552,-12.216000000000001,-43.104,-44.06399999999999,-49.16,-33.744
-19.880000000000003,-34.384,-16.216,26.432000000000002,-2.3920000000000003,-23.799999999999997,30.552,-11.216000000000001,-44.104,-45.06399999999999,-50.16,-34.744
-20.880000000000003,-35.384,-16.216,27.432000000000002,-2.3920000000000003,-24.799999999999997,29.552,-8.216000000000001,-45.104,-46.06399999999999,-50.16,-35.744
-21.880000000000003,-36.384,-17.216,28.432000000000002,-2.3920000000000003,-25.799999999999997,28.552,-6.216000000000001,-46.104,-48.06399999999999,-50.16,-35.744
-22.880000000000003,-37.384,-17.216,29.432000000000002,-3.3920000000000003,-25.799999999999997,27.552,-4.216000000000001,-47.104,-49.06399999999999,-51.16,-36.744
-23.880000000000003,-38.384,-18.216,30.432000000000002,-3.3920000000000003,-26.799999999999997,26.552,-2.216000000000001,-48.104,-51.06399999999999,-51.16,-36.744
-24.880000000000003,-39.384,-18.216,31.432000000000002,-3.3920000000000003,-27.799999999999997,25.552,-0.21600000000000108,-49.104,-52.06399999999999,-51.16,-37.744
-24.880000000000003,-40.384,-18.216,32.432,-3.3920000000000003,-27.799999999999997,24.552,1.783999999999999,-50.104,-53.06399999999999,-51.16,-37.744
-24.880000000000003,-38.384,-16.216,32.432,-4.392,-25.799999999999997,25.552,3.783999999999999,-48.104,-53.06399999999999,-50.16,-35.744
-24.880000000000003,-35.384,-14.216000000000001,32.432,-5.392,-23.799999999999997,26.552,5.783999999999999,-45.104,-52.06399999999999,-49.16,-33.744
-24.880000000000003,-32.384,-11.216000000000001,31.432000000000002,-5.392,-21.799999999999997,27.552,7.783999999999999,-43.104,-51.06399999999999,-48.16,-31.744
-24.880000000000003,-29.384,-9.216000000000001,31.432000000000002,-6.392,-19.799999999999997,28.552,9.783999999999999,-40.104,-50.06399999999999,-46.16,-29.744
-24.880000000000003,-26.384,-7.216000000000001,30.432000000000002,-7.392,-16.799999999999997,29.552,11.783999999999999,-37.104,-49.06399999999999,-45.16,-26.744
-24.880000000000003,-24.384,-4.216000000000001,30.432000000000002,-8.392,-14.799999999999997,30.552,13.783999999999999,-34.104,-48.06399999999999,-44.16,-24.744
-24.880000000000003,-21.384,-2.216000000000001,30.432000000000002,-8.392,-12.799999999999997,31.552,15.783999999999999,-32.104,-48.06399999999999,-43.16,-22.744
-22.880000000000003,-22.384,-3.216000000000001,28.432000000000002,-7.392,-13.799999999999997,27.552,14.783999999999999,-33.104,-47.06399999999999,-43.16,-22.744
-21.880000000000003,-25.384,-5.216000000000001,27.432000000000002,-6.392,-15.799999999999997,21.552,13.783999999999999,-34.104,-46.06399999999999,-44.16,-23.744
-19.880000000000003,-27.384,-6.216000000000001,25.432000000000002,-5.392,-16.799999999999997,16.552,12.783999999999999,-35.104,-45.06399999999999,-44.16,-24.744
-17.880000000000003,-29.384,-8.216000000000001,23.432000000000002,-4.392,-18.799999999999997,11.552,10.783999999999999,-36.104,-45.06399999999999,-45.16,-25.744
-16.880000000000003,-31.384,-9.216000000000001,22.432000000000002,-3.3920000000000003,-19.799999999999997,6.552,9.783999999999999,-37.104,-44.06399999999999,-45.16,-26.744
-14.880000000000003,-33.384,-11.216000000000001,20.432000000000002,-2.3920000000000003,-21.799999999999997,0.5519999999999996,8.783999999999999,-38.104,-43.06399999999999,-46.16,-27.744
-13.880000000000003,-35.384,-12.216000000000001,19.432000000000002,-1.3920000000000003,-22.799999999999997,-4.448,7.783999999999999,-39.104,-43.06399999999999,-46.16,-28.744
-15.880000000000003,-34.384,-10.216000000000001,20.432000000000002,-2.3920000000000003,-21.799999999999997,-0.4480000000000004,7.783999999999999,-39.104,-43.06399999999999,-46.16,-27.744
-17.880000000000003,-31.384,-8.216000000000001,22.432000000000002,-5.392,-19.799999999999997,4.552,7.783999999999999,-39.104,-44.06399999999999,-46.16,-26.744
-20.880000000000003,-29.384,-6.216000000000001,23.432000000000002,-6.392,-17.799999999999997,9.552,8.783999999999999,-39.104,-45.06399999999999,-45.16,-25.744
-22.880000000000003,-27.384,-4.216000000000001,25.432000000000002,-8.392,-15.799999999999997,15.552,8.783999999999999,-39.104,-46.06399999999999,-45.16,-24.744
-24.880000000000003,-25.384,-1.216000000000001,27.432000000000002,-10.392,-13.799999999999997,20.552,9.783999999999999,-39.104,-47.06399999999999,-44.16,-23.744
-27.880000000000003,-23.384,0.7839999999999989,29.432000000000002,-12.392,-12.799999999999997,25.552,9.783999999999999,-39.104,-48.06399999999999,-44.16,-22.744
-29.880000000000003,-21.384,2.783999999999999,30.432000000000002,-14.392,-10.799999999999997,30.552,9.783999999999999,-39.104,-48.06399999999999,-44.16,-21.744
-27.880000000000003,-22.384,0.7839999999999989,28.432000000000002,-12.392,-12.799999999999997,31.552,11.783999999999999,-38.104,-47.06399999999999,-42.16,-21.744
-24.880000000000003,-25.384,-3.216000000000001,26.432000000000002,-10.392,-14.799999999999997,32.552,13.783999999999999,-37.104,-46.06399999999999,-41.16,-22.744
-21.880000000000003,-27.384,-6.216000000000001,23.432000000000002,-7.392,-17.799999999999997,33.552,14.783999999999999,-37.104,-45.06399999999999,-40.16,-22.744
-18.880000000000003,-29.384,-9.216000000000001,21.432000000000002,-5.392,-20.799999999999997,34.552,16.784,-36.104,-43.06399999999999,-38.16,-23.744
-15.880000000000003,-31.384,-13.216000000000001,19.432000000000002,-3.3920000000000003,-22.799999999999997,35.552,18.784,-36.104,-42.06399999999999,-37.16,-23.744
-12.880000000000003,-33.384,-16.216,16.432000000000002,-0.39200000000000035,-25.799999999999997,36.552,20.784,-35.104,-41.06399999999999,-36.16,-24.744
-9.880000000000003,-35.384,-19.216,14.432000000000002,1.6079999999999997,-27.799999999999997,37.552,21.784,-35.104,-40.06399999999999,-35.16,-24.744
-9.880000000000003,-35.384,-19.216,15.432000000000002,1.6079999999999997,-26.799999999999997,34.552,20.784,-35.104,-41.06399999999999,-34.16,-24.744
-10.880000000000003,-34.384,-18.216,16.432000000000002,0.6079999999999997,-25.799999999999997,30.552,18.784,-35.104,-43.06399999999999,-34.16,-23.744
-11.880000000000003,-33.384,-17.216,18.432000000000002,-0.39200000000000035,-24.799999999999997,26.552,16.784,-36.104,-44.06399999999999,-33.16,-23.744
-12.880000000000003,-32.384,-16.216,19.432000000000002,-1.3920000000000003,-23.799999999999997,22.552,14.783999999999999,-36.104,-46.06399999999999,-33.16,-22.744
-13.880000000000003,-31.384,-15.216000000000001,21.432000000000002,-2.3920000000000003,-22.799999999999997,18.552,12.783999999999999,-37.104,-48.06399999999999,-32.16,-22.744
-14.880000000000003,-30.384,-14.216000000000001,22.432000000000002,-3.3920000000000003,-21.799999999999997,14.552,11.783999999999999,-37.104,-50.06399999999999,-32.16,-21.744
-15.880000000000003,-29.384,-13.216000000000001,23.432000000000002,-3.3920000000000003,-20.799999999999997,10.552,9.783999999999999,-37.104,-51.06399999999999,-32.16,-21.744
-13.880000000000003,-25.384,-11.216000000000001,21.432000000000002,-3.3920000000000003,-17.799999999999997,10.552,9.783999999999999,-38.104,-50.06399999999999,-32.16,-22.744
-11.880000000000003,-21.384,-10.216000000000001,17.432000000000002,-2.3920000000000003,-15.799999999999997,11.552,9.783999999999999,-38.104,-49.06399999999999,-33.16,-23.744
-8.880000000000003,-18.384,-8.216000000000001,14.432000000000002,-1.3920000000000003,-12.799999999999997,12.552,10.783999999999999,-38.104,-47.06399999999999,-34.16,-24.744
-5.880000000000003,-14.384,-6.216000000000001,11.432000000000002,-0.39200000000000035,-10.799999999999997,12.552,10.783999999999999,-39.104,-45.06399999999999,-34.16,-25.744
-3.8800000000000026,-10.384,-5.216000000000001,7.432000000000002,0.6079999999999997,-8.799999999999997,13.552,11.783999999999999,-39.104,-44.06399999999999,-35.16,-26.744
-0.8800000000000026,-7.384,-3.216000000000001,4.432000000000002,1.6079999999999997,-5.799999999999997,14.552,11.783999999999999,-39.104,-42.06399999999999,-36.16,-27.744
1.1199999999999974,-3.3840000000000003,-2.216000000000001,1.4320000000000022,2.6079999999999997,-3.799999999999997,14.552,11.783999999999999,-39.104,-41.06399999999999,-36.16,-28.744
-0.8800000000000026,-7.384,-5.216000000000001,4.432000000000002,3.6079999999999997,-6.799999999999997,14.552,12.783999999999999,-39.104,-41.06399999999999,-37.16,-28.744
-3.8800000000000026,-13.384,-8.216000000000001,8.432000000000002,4.608,-10.799999999999997,13.552,12.783999999999999,-38.104,-42.06399999999999,-37.16,-28.744
-5.880000000000003,-18.384,-11.216000000000001,12.432000000000002,4.608,-14.799999999999997,12.552,12.783999999999999,-37.104,-42.06399999999999,-37.16,-27.744
-8.880000000000003,-24.384,-15.216000000000001,16.432000000000002,5.608,-18.799999999999997,12.552,13.783999999999999,-36.104,-43.06399999999999,-37.16,-27.744
-11.880000000000003,-29.384,-18.216,20.432000000000002,5.608,-22.799999999999997,11.552,13.783999999999999,-35.104,-43.06399999999999,-37.16,-26.744
-13.880000000000003,-34.384,-22.216,24.432000000000002,6.608,-26.799999999999997,10.552,13.783999999999999,-34.104,-44.06399999999999,-37.16,-26.744
-16.880000000000003,-40.384,-25.216,28.432000000000002,6.608,-30.799999999999997,10.552,13.783999999999999,-33.104,-44.06399999999999,-37.16,-26.744
-15.880000000000003,-38.384,-24.216,26.432000000000002,6.608,-29.799999999999997,11.552,13.783999999999999,-34.104,-44.06399999999999,-35.16,-25.744
-12.880000000000003,-34.384,-23.216,23.432000000000002,6.608,-26.799999999999997,12.552,12.783999999999999,-35.104,-43.06399999999999,-34.16,-25.744
-10.880000000000003,-31.384,-21.216,20.432000000000002,5.608,-24.799999999999997,13.552,11.783999999999999,-36.104,-42.06399999999999,-32.16,-24.744
-8.880000000000003,-28.384,-19.216,17.432000000000002,5.608,-22.799999999999997,14.552,10.783999999999999,-38.104,-41.06399999999999,-31.159999999999997,-24.744
-6.880000000000003,-24.384,-18.216,15.432000000000002,4.608,-20.799999999999997,15.552,9.783999999999999,-39.104,-40.06399999999999,-30.159999999999997,-23.744
-4.880000000000003,-21.384,-16.216,12.432000000000002,4.608,-18.799999999999997,16.552,8.783999999999999,-40.104,-39.06399999999999,-28.159999999999997,-23.744
-2.8800000000000026,-18.384,-15.216000000000001,9.432000000000002,4.608,-16.799999999999997,17.552,8.783999999999999,-41.104,-39.06399999999999,-27.159999999999997,-23.744
-2.8800000000000026,-19.384,-16.216,10.432000000000002,4.608,-17.799999999999997,18.552,6.783999999999999,-43.104,-39.06399999999999,-27.159999999999997,-23.744
-3.8800000000000026,-20.384,-17.216,11.432000000000002,5.608,-18.799999999999997,19.552,5.783999999999999,-44.104,-40.06399999999999,-28.159999999999997,-24.744
-4.880000000000003,-22.384,-18.216,12.432000000000002,6.608,-19.799999999999997,19.552,4.783999999999999,-45.104,-41.06399999999999,-29.159999999999997,-25.744
-4.880000000000003,-24.384,-19.216,14.432000000000002,6.608,-21.799999999999997,20.552,3.783999999999999,-46.104,-42.06399999999999,-29.159999999999997,-26.744
-5.880000000000003,-25.384,-20.216,15.432000000000002,7.608,-22.799999999999997,20.552,2.783999999999999,-47.104,-43.06399999999999,-30.159999999999997,-27.744
-6.880000000000003,-27.384,-21.216,16.432000000000002,8.608,-23.799999999999997,21.552,1.783999999999999,-48.104,-44.06399999999999,-31.159999999999997,-28.744
-6.880000000000003,-28.384,-22.216,17.432000000000002,8.608,-24.799999999999997,21.552,0.7839999999999989,-49.104,-44.06399999999999,-31.159999999999997,-29.744
-7.880000000000003,-29.384,-22.216,18.432000000000002,8.608,-25.799999999999997,18.552,-1.216000000000001,-48.104,-45.06399999999999,-32.16,-29.744
-8.880000000000003,-29.384,-22.216,18.432000000000002,7.608,-25.799999999999997,13.552,-2.216000000000001,-47.104,-46.06399999999999,-33.16,-29.744
-9.880000000000003,-30.384,-21.216,19.432000000000002,6.608,-25.799999999999997,9.552,-3.216000000000001,-46.104,-46.06399999999999,-34.16,-28.744
-9.880000000000003,-30.384,-21.216,19.432000000000002,6.608,-26.799999999999997,4.552,-5.216000000000001,-45.104,-47.06399999999999,-34.16,-28.744
-10.880000000000003,-31.384,-20.216,20.432000000000002,5.608,-26.799999999999997,0.5519999999999996,-6.216000000000001,-44.104,-47.06399999999999,-35.16,-27.744
-11.880000000000003,-31.384,-20.216,20.432000000000002,4.608,-26.799999999999997,-4.448,-7.216000000000001,-43.104,-48.06399999999999,-36.16,-27.744
-11.880000000000003,-31.384,-20.216,20.432000000000002,4.608,-26.799999999999997,-8.448,-8.216000000000001,-42.104,-48.06399999999999,-36.16,-27.744
-12.880000000000003,-31.384,-18.216,21.432000000000002,2.6079999999999997,-25.799999999999997,-3.4480000000000004,-9.216000000000001,-44.104,-51.06399999999999,-38.16,-28.744
-13.880000000000003,-30.384,-16.216,21.432000000000002,0.6079999999999997,-24.799999999999997,2.5519999999999996,-10.216000000000001,-47.104,-53.06399999999999,-39.16,-29.744
-13.880000000000003,-30.384,-14.216000000000001,21.432000000000002,-1.3920000000000003,-22.799999999999997,8.552,-11.216000000000001,-50.104,-55.06399999999999,-40.16,-30.744
-14.880000000000003,-29.384,-12.216000000000001,21.432000000000002,-3.3920000000000003,-20.799999999999997,14.552,-12.216000000000001,-53.104,-57.06399999999999,-41.16,-31.744
-14.880000000000003,-29.384,-10.216000000000001,21.432000000000002,-5.392,-19.799999999999997,20.552,-13.216000000000001,-55.104,-60.06399999999999,-42.16,-32.744
-15.880000000000003,-28.384,-9.216000000000001,21.432000000000002,-5.392,-17.799999999999997,26.552,-14.216000000000001,-58.104,-62.06399999999999,-43.16,-33.744
-15.880000000000003,-28.384,-7.216000000000001,21.432000000000002,-7.392,-16.799999999999997,32.552,-14.216000000000001,-61.104,-64.064,-44.16,-34.744
-17.880000000000003,-30.384,-8.216000000000001,23.432000000000002,-7.392,-17.799999999999997,30.552,-15.216000000000001,-60.104,-63.06399999999999,-46.16,-36.744
-19.880000000000003,-32.384,-9.216000000000001,26.432000000000002,-6.392,-19.799999999999997,26.552,-16.216,-59.104,-62.06399999999999,-47.16,-37.744
-21.880000000000003,-34.384,-11.216000000000001,28.432000000000002,-6.392,-21.799999999999997,23.552,-17.216,-58.104,-61.06399999999999,-49.16,-39.744
-23.880000000000003,-36.384,-13.216000000000001,30.432000000000002,-5.392,-23.799999999999997,20.552,-18.216,-57.104,-60.06399999999999,-50.16,-40.744
-25.880000000000003,-39.384,-14.216000000000001,32.432,-5.392,-25.799999999999997,16.552,-19.216,-56.104,-59.06399999999999,-51.16,-41.744
-27.880000000000003,-41.384,-16.216,34.432,-5.392,-26.799999999999997,13.552,-20.216,-55.104,-58.06399999999999,-53.16,-43.744
-29.880000000000003,-43.384,-17.216,36.432,-5.392,-28.799999999999997,10.552,-21.216,-54.104,-57.06399999999999,-54.16,-44.744
-28.880000000000003,-42.384,-18.216,35.432,-4.392,-28.799999999999997,12.552,-22.216,-55.104,-57.06399999999999,-53.16,-43.744
-27.880000000000003,-41.384,-18.216,34.432,-4.392,-27.799999999999997,14.552,-23.216,-58.104,-58.06399999999999,-52.16,-42.744
-26.880000000000003,-40.384,-19.216,33.432,-4.392,-27.799999999999997,16.552,-24.216,-60.104,-59.06399999999999,-50.16,-41.744
-25.880000000000003,-39.384,-19.216,32.432,-4.392,-26.799999999999997,19.552,-25.216,-62.104,-60.06399999999999,-49.16,-40.744
-23.880000000000003,-38.384,-20.216,31.432000000000002,-4.392,-26.799999999999997,21.552,-26.216,-64.104,-61.06399999999999,-48.16,-38.744
-22.880000000000003,-37.384,-20.216,30.432000000000002,-4.392,-25.799999999999997,24.552,-27.216,-66.104,-62.06399999999999,-46.16,-37.744
-21.880000000000003,-36.384,-20.216,29.432000000000002,-4.392,-25.799999999999997,26.552,-27.216,-68.104,-63.06399999999999,-45.16,-36.744
-19.880000000000003,-34.384,-19.216,27.432000000000002,-2.3920000000000003,-24.799999999999997,24.552,-26.216,-66.104,-63.06399999999999,-45.16,-35.744
-17.880000000000003,-32.384,-18.216,25.432000000000002,-1.3920000000000003,-22.799999999999997,22.552,-25.216,-64.104,-62.06399999999999,-45.16,-34.744
-15.880000000000003,-30.384,-17.216,24.432000000000002,0.6079999999999997,-21.799999999999997,20.552,-24.216,-61.104,-61.06399999999999,-45.16,-33.744
-13.880000000000003,-28.384,-16.216,22.432000000000002,1.6079999999999997,-20.799999999999997,18.552,-23.216,-59.104,-61.06399999999999,-46.16,-32.744
-11.880000000000003,-26.384,-14.216000000000001,20.432000000000002,2.6079999999999997,-19.799999999999997,15.552,-21.216,-56.104,-60.06399999999999,-46.16,-31.744
-9.880000000000003,-25.384,-13.216000000000001,18.432000000000002,4.608,-18.799999999999997,13.552,-20.216,-53.104,-59.06399999999999,-46.16,-30.744
-7.880000000000003,-23.384,-12.216000000000001,17.432000000000002,5.608,-17.799999999999997,11.552,-19.216,-51.104,-59.06399999999999,-46.16,-30.744
-8.880000000000003,-22.384,-10.216000000000001,16.432000000000002,4.608,-16.799999999999997,15.552,-16.216,-49.104,-57.06399999999999,-45.16,-30.744
-9.880000000000003,-21.384,-9.216000000000001,16.432000000000002,2.6079999999999997,-14.799999999999997,20.552,-13.216000000000001,-47.104,-55.06399999999999,-44.16,-31.744
-10.880000000000003,-20.384,-7.216000000000001,15.432000000000002,1.6079999999999997,-13.799999999999997,25.552,-10.216000000000001,-45.104,-54.06399999999999,-42.16,-31.744
-11.880000000000003,-19.384,-6.216000000000001,15.432000000000002,-0.39200000000000035,-12.799999999999997,30.552,-7.216000000000001,-43.104,-52.06399999999999,-40.16,-32.744
-12.880000000000003,-18.384,-5.216000000000001,14.432000000000002,-2.3920000000000003,-11.799999999999997,36.552,-4.216000000000001,-41.104,-50.06399999999999,-39.16,-32.744
-13.880000000000003,-17.384,-3.216000000000001,14.432000000000002,-4.392,-10.799999999999997,41.552,-1.216000000000001,-40.104,-48.06399999999999,-37.16,-33.744
-14.880000000000003,-16.384,-2.216000000000001,14.432000000000002,-5.392,-9.799999999999997,46.552,1.783999999999999,-38.104,-47.06399999999999,-36.16,-33.744
-13.880000000000003,-10.384,4.783999999999999,10.432000000000002,-7.392,-3.799999999999997,50.552,3.783999999999999,-35.104,-44.06399999999999,-33.16,-31.744
-12.880000000000003,-3.3840000000000003,11.783999999999999,7.432000000000002,-9.392,2.200000000000003,55.552,5.783999999999999,-33.104,-41.06399999999999,-31.159999999999997,-28.744
-10.880000000000003,2.6159999999999997,18.784,3.432000000000002,-11.392,8.200000000000003,60.552,7.783999999999999,-30.104,-37.06399999999999,-29.159999999999997,-25.744
-9.880000000000003,8.616,25.784,0.43200000000000216,-14.392,14.200000000000003,65.55199999999999,9.783999999999999,-28.104,-34.06399999999999,-26.159999999999997,-22.744
-8.880000000000003,15.616,32.784,-3.567999999999998,-16.392,20.200000000000003,71.55199999999999,11.783999999999999,-25.104,-31.063999999999993,-24.159999999999997,-20.744
-6.880000000000003,21.616,39.784,-6.567999999999998,-19.392,26.200000000000003,76.55199999999999,12.783999999999999,-22.104,-28.063999999999993,-21.159999999999997,-17.744
-5.880000000000003,28.616,46.784,-10.567999999999998,-21.392,32.2,81.55199999999999,14.783999999999999,-20.104,-25.063999999999993,-19.159999999999997,-14.744
-3.8800000000000026,30.616,45.784,-12.567999999999998,-20.392,33.2,86.55199999999999,20.784,-14.104,-20.063999999999993,-17.159999999999997,-12.744
-2.8800000000000026,32.616,42.784,-14.567999999999998,-19.392,34.2,92.55199999999999,26.784,-7.103999999999999,-14.063999999999993,-14.159999999999997,-9.744
-0.8800000000000026,34.616,40.784,-16.567999999999998,-17.392,35.2,97.55199999999999,32.784,-1.1039999999999992,-9.063999999999993,-12.159999999999997,-7.744
0.11999999999999744,36.616,38.784,-18.567999999999998,-16.392,35.2,102.55199999999999,38.784,5.896000000000001,-4.063999999999993,-10.159999999999997,-5.744
1.1199999999999974,38.616,35.784,-20.567999999999998,-15.392,36.2,108.55199999999999,44.784,11.896,1.936000000000007,-7.159999999999997,-2.7439999999999998
3.1199999999999974,40.616,33.784,-21.567999999999998,-13.392,37.2,113.55199999999999,50.784,18.896,6.936000000000007,-5.159999999999997,-0.7439999999999998
4.119999999999997,42.616,31.784,-23.567999999999998,-12.392,37.2,119.55199999999999,56.784,25.896,12.936000000000007,-3.1599999999999966,1.2560000000000002
6.119999999999997,45.616,32.784,-26.567999999999998,-11.392,40.2,107.55199999999999,51.784,22.896,10.936000000000007,-1.1599999999999966,4.256
8.119999999999997,49.616,34.784,-29.567999999999998,-10.392,43.2,93.55199999999999,44.784,18.896,7.936000000000007,0.8400000000000034,6.256
10.119999999999997,52.616,36.784,-32.568,-9.392,45.2,79.55199999999999,37.784,14.896,5.936000000000007,2.8400000000000034,8.256
12.119999999999997,55.616,38.784,-35.568,-8.392,48.2,64.55199999999999,30.784,10.896,2.936000000000007,4.840000000000003,11.256
14.119999999999997,58.616,40.784,-37.568,-7.392,51.2,50.552,23.784,6.896000000000001,-0.06399999999999295,6.840000000000003,13.256
15.119999999999997,62.616,42.784,-40.568,-6.392,53.2,37.552,16.784,2.896000000000001,-2.063999999999993,7.840000000000003,16.256
17.119999999999997,65.616,44.784,-43.568,-6.392,56.2,22.552,9.783999999999999,-1.1039999999999992,-5.063999999999993,9.840000000000003,18.256
20.119999999999997,61.616,39.784,-42.568,-3.3920000000000003,52.2,17.552,5.783999999999999,-4.103999999999999,-6.063999999999993,8.840000000000003,17.256
23.119999999999997,56.616,32.784,-41.568,0.6079999999999997,46.2,12.552,2.783999999999999,-6.103999999999999,-7.063999999999993,7.840000000000003,14.256
26.119999999999997,52.616,25.784,-39.568,4.608,40.2,7.552,-1.216000000000001,-9.104,-8.063999999999993,5.840000000000003,12.256
29.119999999999997,47.616,18.784,-37.568,8.608,34.2,3.5519999999999996,-5.216000000000001,-11.104,-9.063999999999993,3.8400000000000034,10.256
32.12,42.616,11.783999999999999,-36.568,12.608,29.200000000000003,-1.4480000000000004,-9.216000000000001,-14.104,-10.063999999999993,2.8400000000000034,7.256
35.12,37.616,4.783999999999999,-34.568,16.608,23.200000000000003,-5.448,-12.216000000000001,-17.104,-11.063999999999993,0.8400000000000034,5.256
38.12,32.616,-2.216000000000001,-33.568,20.608,17.200000000000003,-10.448,-16.216,-19.104,-11.063999999999993,-0.1599999999999966,3.2560000000000002
36.12,25.616,-7.216000000000001,-28.567999999999998,23.608,11.200000000000003,-10.448,-15.216000000000001,-21.104,-14.063999999999993,-3.1599999999999966,2.2560000000000002
33.12,17.616,-13.216000000000001,-23.567999999999998,25.608,4.200000000000003,-8.448,-14.216000000000001,-23.104,-17.063999999999993,-6.159999999999997,0.2560000000000002
30.119999999999997,9.616,-18.216,-18.567999999999998,27.608,-2.799999999999997,-7.448,-12.216000000000001,-26.104,-20.063999999999993,-9.159999999999997,-0.7439999999999998
27.119999999999997,1.6159999999999997,-24.216,-13.567999999999998,30.608,-9.799999999999997,-6.448,-10.216000000000001,-28.104,-23.063999999999993,-12.159999999999997,-1.7439999999999998
24.119999999999997,-6.384,-30.216,-8.567999999999998,32.608,-16.799999999999997,-5.448,-9.216000000000001,-30.104,-26.063999999999993,-15.159999999999997,-2.7439999999999998
21.119999999999997,-14.384,-35.216,-2.567999999999998,35.608,-23.799999999999997,-4.448,-7.216000000000001,-32.104,-29.063999999999993,-18.159999999999997,-3.7439999999999998
18.119999999999997,-21.384,-41.216,2.432000000000002,37.608,-30.799999999999997,-3.4480000000000004,-6.216000000000001,-34.104,-32.06399999999999,-21.159999999999997,-4.744
10.119999999999997,-27.384,-40.216,8.432000000000002,32.608,-32.8,-0.4480000000000004,-8.216000000000001,-38.104,-36.06399999999999,-25.159999999999997,-8.744
1.1199999999999974,-33.384,-38.216,14.432000000000002,25.608,-34.8,1.5519999999999996,-11.216000000000001,-42.104,-40.06399999999999,-29.159999999999997,-13.744
-7.880000000000003,-39.384,-36.216,20.432000000000002,19.608,-37.8,3.5519999999999996,-14.216000000000001,-46.104,-44.06399999999999,-33.16,-17.744
-16.880000000000003,-45.384,-34.216,27.432000000000002,12.608,-39.8,6.552,-18.216,-50.104,-48.06399999999999,-37.16,-22.744
-25.880000000000003,-50.384,-32.216,33.432,6.608,-41.8,8.552,-21.216,-54.104,-53.06399999999999,-41.16,-26.744
-34.88,-56.384,-31.216,39.432,-0.39200000000000035,-43.8,11.552,-24.216,-58.104,-57.06399999999999,-45.16,-30.744
-43.88,-62.384,-29.216,46.432,-6.392,-45.8,13.552,-27.216,-62.104,-61.06399999999999,-49.16,-35.744
-42.88,-64.384,-31.216,48.432,-5.392,-48.8,11.552,-31.216,-67.104,-65.064,-51.16,-38.744
-39.88,-65.384,-35.216,50.432,-2.3920000000000003,-51.8,9.552,-36.216,-72.104,-69.064,-53.16,-41.744
-36.88,-67.384,-38.216,52.432,0.6079999999999997,-54.8,6.552,-41.216,-76.104,-73.064,-55.16,-44.744
-33.88,-68.384,-41.216,54.432,3.6079999999999997,-57.8,4.552,-45.216,-81.104,-77.064,-57.16,-48.744
-30.880000000000003,-69.384,-43.216,56.432,5.608,-59.8,1.5519999999999996,-49.216,-86.104,-82.064,-59.16,-51.744
-27.880000000000003,-71.384,-47.216,57.432,8.608,-62.8,-1.4480000000000004,-53.216,-91.104,-86.064,-61.16,-54.744
-24.880000000000003,-72.384,-50.216,59.432,11.608,-65.8,-3.4480000000000004,-58.216,-96.104,-89.064,-63.16,-57.744
-25.880000000000003,-74.384,-50.216,60.432,10.608,-65.8,-2.4480000000000004,-58.216,-95.104,-89.064,-65.16,-58.744
-28.880000000000003,-76.384,-49.216,61.432,9.608,-64.8,-0.4480000000000004,-57.216,-93.104,-89.064,-67.16,-59.744
-30.880000000000003,-79.384,-48.216,61.432,8.608,-63.8,1.5519999999999996,-57.216,-92.104,-89.064,-68.16,-60.744
-32.88,-81.384,-48.216,62.432,7.608,-62.8,3.5519999999999996,-56.216,-90.104,-89.064,-70.16,-61.744
-35.88,-83.384,-47.216,62.432,5.608,-61.8,5.552,-56.216,-88.104,-89.064,-72.16,-62.744
-37.88,-85.384,-46.216,63.432,4.608,-60.8,6.552,-55.216,-86.104,-89.064,-74.16,-63.744
-39.88,-87.384,-46.216,63.432,3.6079999999999997,-59.8,8.552,-55.216,-85.104,-89.064,-75.16,-64.744
-38.88,-86.384,-46.216,62.432,4.608,-59.8,10.552,-56.216,-85.104,-88.064,-74.16,-63.744
-36.88,-83.384,-47.216,59.432,5.608,-61.8,11.552,-58.216,-85.104,-86.064,-73.16,-62.744
-33.88,-81.384,-47.216,57.432,6.608,-62.8,13.552,-60.216,-85.104,-84.064,-71.16,-60.744
-31.880000000000003,-79.384,-48.216,55.432,7.608,-63.8,15.552,-62.216,-85.104,-82.064,-69.16,-59.744
-29.880000000000003,-76.384,-48.216,52.432,9.608,-64.8,16.552,-64.21600000000001,-85.104,-79.064,-68.16,-58.744
-27.880000000000003,-74.384,-49.216,50.432,10.608,-65.8,18.552,-66.21600000000001,-85.104,-77.064,-66.16,-56.744
-25.880000000000003,-72.384,-49.216,48.432,11.608,-66.8,19.552,-68.21600000000001,-85.104,-75.064,-65.16,-55.744
-27.880000000000003,-72.384,-48.216,49.432,9.608,-65.8,19.552,-67.21600000000001,-88.104,-77.064,-65.16,-55.744
-30.880000000000003,-73.384,-46.216,51.432,7.608,-64.8,18.552,-64.21600000000001,-91.104,-79.064,-66.16,-57.744
-32.88,-74.384,-44.216,53.432,5.608,-62.8,17.552,-62.216,-93.104,-81.064,-67.16,-58.744
-35.88,-75.384,-43.216,55.432,2.6079999999999997,-60.8,17.552,-60.216,-96.104,-84.064,-68.16,-59.744
-38.88,-76.384,-42.216,56.432,0.6079999999999997,-59.8,16.552,-57.216,-99.104,-86.064,-69.16,-60.744
-40.88,-77.384,-40.216,58.432,-2.3920000000000003,-57.8,15.552,-55.216,-101.104,-88.064,-70.16,-61.744
-43.88,-78.384,-38.216,60.432,-4.392,-56.8,15.552,-53.216,-104.104,-90.064,-71.16,-62.744
-42.88,-76.384,-36.216,58.432,-4.392,-54.8,14.552,-54.216,-101.104,-88.064,-69.16,-61.744
-39.88,-72.384,-35.216,56.432,-4.392,-52.8,13.552,-55.216,-97.104,-86.064,-66.16,-59.744
-37.88,-69.384,-33.216,53.432,-4.392,-49.8,12.552,-57.216,-94.104,-84.064,-63.16,-56.744
-35.88,-66.384,-31.216,50.432,-3.3920000000000003,-47.8,12.552,-59.216,-90.104,-81.064,-61.16,-54.744
-32.88,-63.384,-30.216,47.432,-3.3920000000000003,-45.8,11.552,-60.216,-86.104,-78.064,-58.16,-52.744
-30.880000000000003,-59.384,-28.216,45.432,-3.3920000000000003,-43.8,10.552,-62.216,-82.104,-76.064,-55.16,-50.744
-28.880000000000003,-56.384,-27.216,42.432,-3.3920000000000003,-41.8,10.552,-63.216,-78.104,-73.064,-52.16,-48.744
-33.88,-71.384,-38.216,52.432,0.6079999999999997,-54.8,16.552,-52.216,-88.104,-90.064,-70.16,-64.744
-39.88,-90.384,-50.216,64.432,4.608,-69.8,24.552,-38.216,-100.104,-113.064,-93.16,-84.744
-45.88,-108.384,-63.216,75.432,7.608,-85.8,32.552,-24.216,-112.104,-135.064,-114.16,-102.744
-51.88,-127.384,-76.21600000000001,88.432,11.608,-101.8,40.552,-10.216000000000001,-124.104,-158.064,-137.16,-122.744
-56.88,-146.38400000000001,-89.21600000000001,100.432,15.608,-117.8,47.552,4.783999999999999,-137.10399999999998,-180.064,-159.16,-142.744
-62.88,-165.38400000000001,-102.21600000000001,112.432,19.608,-133.8,55.552,18.784,-149.10399999999998,-202.064,-181.16,-162.744
-68.88,-183.38400000000001,-115.21600000000001,125.432,23.608,-149.8,63.552,32.784,-161.10399999999998,-225.064,-204.16,-181.744
-63.88,-168.38400000000001,-104.21600000000001,114.432,20.608,-135.8,85.55199999999999,74.78399999999999,-136.10399999999998,-211.064,-196.16,-175.744
-56.88,-145.38400000000001,-89.21600000000001,99.432,16.608,-116.8,110.55199999999999,121.78399999999999,-105.104,-191.064,-181.16,-163.744
-50.88,-122.384,-73.21600000000001,85.432,11.608,-97.8,135.552,168.784,-73.104,-171.064,-167.16,-151.744
-43.88,-100.384,-57.216,71.432,7.608,-78.8,160.552,215.784,-41.104,-150.064,-153.16,-139.744
-36.88,-78.384,-43.216,56.432,3.6079999999999997,-60.8,185.552,262.784,-8.104,-130.064,-138.16,-127.744
-29.880000000000003,-56.384,-27.216,42.432,-1.3920000000000003,-41.8,210.552,310.784,23.896,-109.064,-124.16,-115.744
-22.880000000000003,-33.384,-11.216000000000001,27.432000000000002,-5.392,-22.799999999999997,235.552,357.784,55.896,-89.064,-110.16,-103.744
20.119999999999997,52.616,32.784,-36.568,-1.3920000000000003,43.2,223.552,415.784,288.896,45.93600000000001,-20.159999999999997,-36.744
69.12,152.61599999999999,83.78399999999999,-111.568,3.6079999999999997,118.2,203.552,475.784,560.896,205.936,85.84,42.256
118.12,251.61599999999999,133.784,-185.56799999999998,8.608,193.2,182.552,534.784,832.896,364.93600000000004,190.84,122.256
167.12,351.616,183.784,-259.568,14.608,268.2,162.552,594.784,1105.896,523.936,296.84000000000003,201.256
217.12,450.616,234.784,-333.568,19.608,343.2,142.552,654.784,1377.896,682.936,402.84000000000003,280.256
266.12,549.616,284.784,-408.568,24.608,418.2,122.55199999999999,714.784,1649.896,841.936,508.84000000000003,360.256
315.12,649.616,334.784,-482.568,30.608,493.2,102.55199999999999,774.784,1922.896,1001.936,614.84,439.256
354.12,727.616,380.784,-540.568,14.608,555.2,-30.448,603.784,1912.896,1105.936,707.84,524.256
391.12,802.616,425.784,-595.568,-5.392,614.2,-188.448,384.784,1845.896,1197.936,799.84,609.256
429.12,876.616,470.784,-650.568,-25.392,673.2,-345.448,165.784,1779.896,1290.936,890.84,694.256
466.12,951.616,515.784,-705.568,-45.392,733.2,-502.448,-51.216,1712.896,1383.936,981.84,780.256
503.12,1025.616,560.784,-759.568,-65.392,792.2,-659.448,-270.216,1646.896,1475.936,1072.84,865.256
540.12,1099.616,605.784,-814.568,-86.392,851.2,-816.448,-488.216,1579.896,1568.936,1164.84,950.256
577.12,1174.616,650.784,-869.568,-106.392,910.2,-974.448,-707.216,1513.896,1661.936,1255.84,1036.256
525.12,1068.616,591.784,-790.568,-97.392,828.2,-1030.448,-870.216,1245.896,1493.936,1167.84,977.256
454.12,925.616,511.784,-684.568,-82.392,717.2,-1066.448,-1021.216,935.896,1273.936,1041.84,888.256
383.12,782.616,432.784,-578.568,-67.392,606.2,-1102.448,-1172.216,626.896,1052.936,916.84,799.256
312.12,639.616,352.784,-472.568,-53.392,495.2,-1138.448,-1323.216,316.896,831.936,791.84,710.256
241.12,495.616,272.784,-366.568,-38.392,384.2,-1174.448,-1474.216,6.896000000000001,610.936,666.84,621.256
170.12,352.616,192.784,-260.568,-23.392,273.2,-1210.448,-1625.216,-301.104,390.93600000000004,540.84,532.256
99.12,209.61599999999999,112.78399999999999,-154.56799999999998,-8.392,162.2,-1246.448,-1776.216,-611.104,169.936,415.84000000000003,443.256
79.12,150.61599999999999,72.78399999999999,-114.568,2.6079999999999997,112.2,-1146.448,-1651.216,-631.104,97.936,349.84000000000003,384.256
69.12,108.616,39.784,-88.568,14.608,74.2,-1017.448,-1467.216,-591.104,56.93600000000001,294.84000000000003,331.256
59.12,65.616,6.783999999999999,-62.568,25.608,37.2,-888.448,-1284.216,-551.104,15.936000000000007,240.84,279.256
50.12,23.616,-25.216,-36.568,37.608,-0.7999999999999972,-759.448,-1100.216,-510.104,-24.063999999999993,185.84,226.256
40.12,-18.384,-57.216,-9.567999999999998,48.608,-37.8,-630.448,-917.216,-470.104,-65.064,131.84,173.256
31.119999999999997,-60.384,-89.21600000000001,16.432000000000002,60.608,-73.8,-501.448,-733.216,-430.104,-105.064,76.84,120.256
21.119999999999997,-101.384,-122.21600000000001,42.432,71.608,-111.8,-372.448,-550.216,-390.104,-145.064,22.840000000000003,68.256
17.119999999999997,-98.384,-115.21600000000001,42.432,66.608,-106.8,-313.448,-462.216,-345.104,-139.064,9.840000000000003,53.256
14.119999999999997,-86.384,-99.21600000000001,37.432,57.608,-91.8,-269.448,-395.216,-300.104,-122.064,5.840000000000003,46.256
11.119999999999997,-72.384,-83.21600000000001,31.432000000000002,48.608,-77.8,-225.448,-328.216,-254.10399999999998,-105.064,1.8400000000000034,39.256
9.119999999999997,-59.384,-67.21600000000001,26.432000000000002,39.608,-63.8,-181.448,-261.216,-209.10399999999998,-88.064,-2.1599999999999966,32.256
6.119999999999997,-46.384,-52.216,20.432000000000002,30.608,-49.8,-137.448,-194.216,-163.10399999999998,-72.064,-6.159999999999997,25.256
3.1199999999999974,-33.384,-37.216,15.432000000000002,21.608,-35.8,-93.44800000000001,-127.21600000000001,-118.104,-55.06399999999999,-11.159999999999997,19.256
0.11999999999999744,-20.384,-21.216,9.432000000000002,12.608,-20.799999999999997,-48.448,-60.216,-74.104,-39.06399999999999,-15.159999999999997,12.256
-0.8800000000000026,-16.384,-17.216,8.432000000000002,10.608,-16.799999999999997,-34.448,-35.216,-58.104,-34.06399999999999,-13.159999999999997,8.256
-0.8800000000000026,-15.384,-15.216000000000001,7.432000000000002,8.608,-15.799999999999997,-26.448,-19.216,-49.104,-32.06399999999999,-11.159999999999997,6.256
-0.8800000000000026,-14.384,-12.216000000000001,7.432000000000002,7.608,-13.799999999999997,-19.448,-3.216000000000001,-39.104,-29.063999999999993,-8.159999999999997,3.2560000000000002
-1.8800000000000026,-13.384,-10.216000000000001,6.432000000000002,6.608,-12.799999999999997,-11.448,13.783999999999999,-30.104,-27.063999999999993,-5.159999999999997,0.2560000000000002
-1.8800000000000026,-11.384,-8.216000000000001,6.432000000000002,5.608,-11.799999999999997,-3.4480000000000004,29.784,-21.104,-25.063999999999993,-2.1599999999999966,-2.7439999999999998
-1.8800000000000026,-10.384,-6.216000000000001,5.432000000000002,4.608,-9.799999999999997,3.5519999999999996,45.784,-11.104,-23.063999999999993,-0.1599999999999966,-4.744
-1.8800000000000026,-9.384,-4.216000000000001,5.432000000000002,3.6079999999999997,-8.799999999999997,11.552,62.784,-2.103999999999999,-21.063999999999993,2.8400000000000034,-7.744
0.11999999999999744,-6.384,-4.216000000000001,1.4320000000000022,4.608,-6.799999999999997,14.552,69.78399999999999,0.8960000000000008,-19.063999999999993,0.8400000000000034,-7.744
4.119999999999997,-4.384,-4.216000000000001,-2.567999999999998,5.608,-5.799999999999997,15.552,74.78399999999999,3.896000000000001,-17.063999999999993,-2.1599999999999966,-6.744
7.119999999999997,-1.3840000000000003,-5.216000000000001,-5.567999999999998,7.608,-3.799999999999997,16.552,79.78399999999999,5.896000000000001,-15.063999999999993,-5.159999999999997,-5.744
11.119999999999997,1.6159999999999997,-5.216000000000001,-9.567999999999998,8.608,-2.799999999999997,17.552,85.78399999999999,8.896,-13.063999999999993,-8.159999999999997,-4.744
14.119999999999997,4.616,-6.216000000000001,-13.567999999999998,9.608,-1.7999999999999972,19.552,90.78399999999999,10.896,-12.063999999999993,-12.159999999999997,-3.7439999999999998
17.119999999999997,6.616,-6.216000000000001,-17.567999999999998,11.608,0.20000000000000284,20.552,95.78399999999999,13.896,-10.063999999999993,-15.159999999999997,-2.7439999999999998
21.119999999999997,9.616,-6.216000000000001,-21.567999999999998,12.608,1.2000000000000028,21.552,101.78399999999999,15.896,-8.063999999999993,-18.159999999999997,-1.7439999999999998
20.119999999999997,9.616,-6.216000000000001,-20.567999999999998,12.608,3.200000000000003,23.552,105.78399999999999,19.896,-5.063999999999993,-17.159999999999997,-0.7439999999999998
19.119999999999997,8.616,-5.216000000000001,-18.567999999999998,11.608,4.200000000000003,24.552,109.78399999999999,23.896,-3.063999999999993,-14.159999999999997,-0.7439999999999998
18.119999999999997,8.616,-4.216000000000001,-17.567999999999998,11.608,6.200000000000003,25.552,113.78399999999999,27.896,-0.06399999999999295,-12.159999999999997,0.2560000000000002
17.119999999999997,7.616,-3.216000000000001,-15.567999999999998,10.608,7.200000000000003,26.552,117.78399999999999,31.896,1.936000000000007,-9.159999999999997,0.2560000000000002
15.119999999999997,7.616,-2.216000000000001,-13.567999999999998,10.608,8.200000000000003,28.552,121.78399999999999,35.896,4.936000000000007,-7.159999999999997,1.2560000000000002
14.119999999999997,6.616,-1.216000000000001,-12.567999999999998,9.608,10.200000000000003,29.552,125.78399999999999,39.896,6.936000000000007,-4.159999999999997,1.2560000000000002
13.119999999999997,6.616,-0.21600000000000108,-10.567999999999998,9.608,11.200000000000003,30.552,129.784,43.896,9.936000000000007,-2.1599999999999966,1.2560000000000002
14.119999999999997,7.616,-1.216000000000001,-11.567999999999998,9.608,10.200000000000003,33.552,133.784,47.896,11.936000000000007,-0.1599999999999966,3.2560000000000002
16.119999999999997,10.616,-2.216000000000001,-13.567999999999998,10.608,8.200000000000003,35.552,138.784,51.896,13.936000000000007,1.8400000000000034,5.256
18.119999999999997,12.616,-4.216000000000001,-16.567999999999998,11.608,6.200000000000003,38.552,142.784,55.896,15.936000000000007,3.8400000000000034,7.256
20.119999999999997,15.616,-5.216000000000001,-18.567999999999998,12.608,4.200000000000003,41.552,147.784,59.896,17.936000000000007,5.840000000000003,9.256
22.119999999999997,17.616,-6.216000000000001,-20.567999999999998,13.608,3.200000000000003,44.552,151.784,63.896,19.936000000000007,7.840000000000003,11.256
24.119999999999997,20.616,-8.216000000000001,-22.567999999999998,14.608,1.2000000000000028,46.552,156.784,68.896,21.936000000000007,9.840000000000003,13.256
26.119999999999997,22.616,-9.216000000000001,-24.567999999999998,15.608,-0.7999999999999972,48.552,161.784,72.896,23.936000000000007,11.840000000000003,15.256
28.119999999999997,25.616,-7.216000000000001,-27.567999999999998,15.608,2.200000000000003,49.552,166.784,75.896,27.936000000000007,14.840000000000003,17.256
30.119999999999997,29.616,-5.216000000000001,-29.567999999999998,15.608,6.200000000000003,50.552,171.784,78.896,31.936000000000007,16.840000000000003,19.256
31.119999999999997,32.616,-2.216000000000001,-32.568,15.608,11.200000000000003,51.552,177.784,81.896,36.93600000000001,19.840000000000003,21.256
33.12,36.616,-0.21600000000000108,-34.568,15.608,15.200000000000003,52.552,182.784,84.896,40.93600000000001,21.840000000000003,23.256
35.12,39.616,2.783999999999999,-37.568,15.608,19.200000000000003,53.552,188.784,88.896,44.93600000000001,24.840000000000003,25.256
36.12,42.616,4.783999999999999,-39.568,15.608,23.200000000000003,53.552,193.784,91.896,48.93600000000001,26.840000000000003,27.256
38.12,46.616,7.783999999999999,-42.568,15.608,28.200000000000003,54.552,198.784,94.896,53.93600000000001,29.840000000000003,29.256
41.12,49.616,8.783999999999999,-44.568,16.608,30.200000000000003,52.552,203.784,100.896,57.93600000000001,33.84,31.256
43.12,52.616,8.783999999999999,-47.568,17.608,31.200000000000003,50.552,207.784,106.896,61.93600000000001,37.84,33.256
46.12,55.616,8.783999999999999,-49.568,18.608,33.2,47.552,211.784,112.896,65.936,41.84,35.256
48.12,57.616,8.783999999999999,-51.568,19.608,34.2,46.552,215.784,118.896,69.936,45.84,37.256
51.12,60.616,8.783999999999999,-53.568,21.608,36.2,43.552,219.784,125.896,73.936,49.84,38.256
53.12,63.616,8.783999999999999,-56.568,22.608,38.2,41.552,224.784,131.89600000000002,77.936,54.84,40.256
56.12,66.616,8.783999999999999,-58.568,23.608,39.2,38.552,228.784,137.89600000000002,81.936,58.84,42.256
58.12,69.616,10.783999999999999,-61.568,24.608,42.2,36.552,236.784,145.89600000000002,85.936,61.84,45.256
60.12,73.616,12.783999999999999,-64.568,24.608,44.2,34.552,244.784,153.89600000000002,90.936,64.84,48.256
62.12,77.616,13.783999999999999,-68.568,25.608,47.2,33.552,253.784,161.89600000000002,95.936,67.84,51.256
64.12,81.616,15.783999999999999,-71.568,25.608,49.2,31.552,262.784,169.89600000000002,99.936,70.84,53.256
66.12,84.616,17.784,-74.568,26.608,52.2,29.552,271.784,177.89600000000002,104.936,73.84,56.256
68.12,88.616,18.784,-78.568,26.608,54.2,28.552,280.784,185.89600000000002,109.936,76.84,59.256
70.12,92.616,20.784,-81.568,26.608,57.2,26.552,289.784,193.89600000000002,114.936,79.84,62.256
74.12,98.616,22.784,-86.568,28.608,61.2,26.552,300.784,203.89600000000002,122.936,85.84,67.256
79.12,104.616,24.784,-92.568,29.608,65.2,28.552,312.784,214.89600000000002,131.936,92.84,72.256
84.12,110.616,25.784,-97.568,30.608,69.2,29.552,324.784,225.89600000000002,141.936,99.84,77.256
89.12,117.616,27.784,-103.568,31.608,73.2,30.552,337.784,236.89600000000002,150.936,106.84,82.256
94.12,123.616,29.784,-109.568,33.608,77.2,31.552,349.784,247.89600000000002,160.936,113.84,87.256
99.12,130.61599999999999,30.784,-115.568,34.608,82.2,32.552,361.784,257.896,169.936,120.84,92.256
104.12,136.61599999999999,32.784,-120.568,35.608,86.2,33.552,373.784,268.896,179.936,127.84,97.256
108.12,145.61599999999999,36.784,-127.568,36.608,92.2,31.552,387.784,283.896,190.936,135.84,103.256
113.12,154.61599999999999,40.784,-134.56799999999998,37.608,99.2,28.552,401.784,298.896,203.936,143.84,109.256
118.12,163.61599999999999,44.784,-141.56799999999998,37.608,106.2,25.552,416.784,313.896,215.936,150.84,114.256
123.12,173.61599999999999,49.784,-148.56799999999998,38.608,113.2,22.552,430.784,329.896,227.936,158.84,120.256
128.12,182.61599999999999,53.784,-155.56799999999998,38.608,119.2,19.552,445.784,344.896,239.936,166.84,126.256
133.12,191.61599999999999,57.784,-162.56799999999998,39.608,126.2,16.552,459.784,359.896,252.936,174.84,132.256
138.12,201.61599999999999,62.784,-169.56799999999998,39.608,133.2,13.552,474.784,374.896,264.93600000000004,182.84,137.256
145.12,211.61599999999999,66.78399999999999,-178.56799999999998,41.608,140.2,9.552,491.784,394.896,279.93600000000004,192.84,146.256
152.12,222.61599999999999,70.78399999999999,-186.56799999999998,42.608,147.2,4.552,510.784,416.896,295.93600000000004,203.84,156.256
158.12,232.61599999999999,74.78399999999999,-195.56799999999998,44.608,154.2,-0.4480000000000004,528.784,437.896,311.93600000000004,214.84,165.256
165.12,243.61599999999999,78.78399999999999,-204.56799999999998,45.608,162.2,-4.448,546.784,458.896,327.93600000000004,225.84,175.256
172.12,254.61599999999999,82.78399999999999,-213.56799999999998,47.608,169.2,-9.448,565.784,480.896,343.93600000000004,236.84,184.256
178.12,265.616,86.78399999999999,-222.56799999999998,49.608,176.2,-14.448,583.784,501.896,359.93600000000004,247.84,194.256
185.12,275.616,90.78399999999999,-231.56799999999998,50.608,183.2,-19.448,602.784,522.896,375.93600000000004,258.84000000000003,203.256
196.12,289.616,93.78399999999999,-243.56799999999998,54.608,191.2,-22.448,621.784,547.896,395.93600000000004,273.84000000000003,216.256
208.12,304.616,95.78399999999999,-256.568,58.608,200.2,-25.448,641.784,574.896,416.93600000000004,289.84000000000003,228.256
220.12,318.616,98.78399999999999,-269.568,62.608,209.2,-27.448,660.784,600.896,437.93600000000004,305.84000000000003,241.256
231.12,333.616,101.78399999999999,-282.568,67.608,218.2,-30.448,680.784,627.896,459.93600000000004,321.84000000000003,254.256
243.12,347.616,103.78399999999999,-295.568,71.608,226.2,-33.448,699.784,653.896,480.93600000000004,337.84000000000003,266.256
255.12,362.616,106.78399999999999,-308.568,75.608,235.2,-36.448,719.784,679.896,501.93600000000004,353.84000000000003,279.256
267.12,376.616,109.78399999999999,-321.568,80.608,244.2,-39.448,738.784,706.896,522.936,369.84000000000003,292.256
276.12,390.616,113.78399999999999,-332.568,82.608,252.2,-42.448,753.784,728.896,540.936,382.84000000000003,301.256
284.12,402.616,118.78399999999999,-342.568,83.608,261.2,-46.448,766.784,749.896,557.936,393.84000000000003,310.256
292.12,415.616,123.78399999999999,-353.568,85.608,270.2,-49.448,779.784,769.896,575.936,405.84000000000003,318.256
300.12,428.616,127.78399999999999,-363.568,86.608,278.2,-52.448,792.784,790.896,592.936,416.84000000000003,327.256
308.12,440.616,132.784,-373.568,88.608,287.2,-56.448,805.784,811.896,609.936,428.84000000000003,336.256
317.12,453.616,137.784,-384.568,90.608,296.2,-59.448,819.784,831.896,627.936,439.84000000000003,344.256
325.12,466.616,141.784,-394.568,91.608,305.2,-63.448,832.784,852.896,644.936,451.84000000000003,353.256
332.12,475.616,144.784,-402.568,93.608,310.2,-65.44800000000001,840.784,869.896,659.936,462.84000000000003,361.256
339.12,483.616,146.784,-410.568,96.608,315.2,-67.44800000000001,846.784,885.896,674.936,472.84000000000003,369.256
346.12,491.616,147.784,-417.568,98.608,320.2,-69.44800000000001,853.784,901.896,688.936,483.84000000000003,378.256
352.12,499.616,149.784,-425.568,100.608,325.2,-72.44800000000001,859.784,918.896,703.936,493.84000000000003,386.256
359.12,507.616,151.784,-432.568,102.608,330.2,-74.44800000000001,866.784,934.896,718.936,503.84000000000003,394.256
366.12,515.616,152.784,-439.568,105.608,335.2,-76.44800000000001,872.784,950.896,733.936,514.84,402.256
373.12,523.616,154.784,-447.568,107.608,340.2,-78.44800000000001,879.784,966.896,747.936,524.84,411.256
373.12,522.616,153.784,-447.568,109.608,339.2,-81.44800000000001,877.784,966.896,748.936,525.84,411.256
372.12,519.616,152.784,-445.568,110.608,337.2,-85.44800000000001,872.784,961.896,744.936,522.84,408.256
371.12,517.616,150.784,-443.568,111.608,334.2,-88.44800000000001,867.784,956.896,741.936,520.84,406.256
370.12,514.616,149.784,-441.568,112.608,332.2,-91.44800000000001,863.784,952.896,737.936,518.84,403.256
368.12,511.616,147.784,-439.568,114.608,329.2,-95.44800000000001,858.784,947.896,734.936,516.84,401.256
367.12,508.616,145.784,-437.568,115.608,327.2,-98.44800000000001,853.784,942.896,731.936,513.84,398.256
366.12,505.616,144.784,-435.568,116.608,324.2,-102.44800000000001,848.784,937.896,727.936,511.84000000000003,396.256
356.12,494.616,141.784,-425.568,112.608,317.2,-95.44800000000001,834.784,916.896,709.936,498.84000000000003,386.256
345.12,481.616,139.784,-412.568,107.608,310.2,-86.44800000000001,817.784,890.896,686.936,482.84000000000003,375.256
333.12,467.616,136.784,-400.568,102.608,302.2,-77.44800000000001,799.784,864.896,664.936,466.84000000000003,363.256
322.12,454.616,134.784,-387.568,97.608,294.2,-68.44800000000001,782.784,838.896,641.936,450.84000000000003,351.256
310.12,440.616,131.784,-375.568,91.608,287.2,-59.448,765.784,811.896,619.936,434.84000000000003,339.256
299.12,427.616,129.784,-363.568,86.608,279.2,-50.448,748.784,785.896,596.936,418.84000000000003,328.256
287.12,413.616,126.78399999999999,-350.568,81.608,271.2,-41.448,730.784,759.896,573.936,402.84000000000003,316.256
272.12,394.616,122.78399999999999,-333.568,75.608,260.2,-34.448,703.784,725.896,545.936,381.84000000000003,300.256
256.12,374.616,117.78399999999999,-315.568,69.608,247.2,-28.448,673.784,689.896,514.936,358.84000000000003,283.256
240.12,353.616,113.78399999999999,-296.568,63.608,235.2,-22.448,644.784,653.896,484.93600000000004,335.84000000000003,265.256
224.12,332.616,108.78399999999999,-278.568,57.608,222.2,-16.448,614.784,617.896,453.93600000000004,313.84000000000003,248.256
208.12,312.616,104.78399999999999,-259.568,52.608,209.2,-11.448,584.784,581.896,422.93600000000004,290.84000000000003,231.256
192.12,291.616,99.78399999999999,-241.56799999999998,46.608,197.2,-5.448,554.784,546.896,392.93600000000004,267.84000000000003,214.256
176.12,270.616,95.78399999999999,-223.56799999999998,40.608,184.2,0.5519999999999996,524.784,510.896,361.93600000000004,245.84,196.256
163.12,251.61599999999999,88.78399999999999,-207.56799999999998,37.608,172.2,3.5519999999999996,496.784,478.896,336.93600000000004,227.84,182.256
151.12,233.61599999999999,82.78399999999999,-192.56799999999998,34.608,159.2,5.552,469.784,447.896,312.93600000000004,211.84,168.256
140.12,215.61599999999999,75.78399999999999,-177.56799999999998,32.608,147.2,7.552,442.784,416.896,289.93600000000004,195.84,154.256
128.12,196.61599999999999,68.78399999999999,-162.56799999999998,29.608,134.2,10.552,414.784,385.896,265.93600000000004,179.84,140.256
116.12,178.61599999999999,61.784,-147.56799999999998,27.608,121.2,12.552,387.784,354.896,241.936,162.84,126.256
104.12,160.61599999999999,55.784,-132.56799999999998,24.608,109.2,14.552,360.784,323.896,218.936,146.84,112.256
92.12,142.61599999999999,48.784,-117.568,22.608,96.2,16.552,333.784,292.896,194.936,130.84,99.256
83.12,129.61599999999999,45.784,-106.568,19.608,88.2,16.552,310.784,270.896,177.936,119.84,90.256
75.12,118.616,42.784,-96.568,16.608,82.2,15.552,290.784,249.89600000000002,162.936,109.84,82.256
66.12,107.616,40.784,-87.568,13.608,75.2,15.552,269.784,228.89600000000002,148.936,98.84,74.256
58.12,97.616,37.784,-77.568,10.608,68.2,14.552,248.784,208.89600000000002,133.936,88.84,66.256
49.12,86.616,35.784,-67.568,7.608,61.2,14.552,228.784,187.89600000000002,118.936,78.84,59.256
41.12,75.616,32.784,-57.568,3.6079999999999997,55.2,13.552,207.784,167.89600000000002,104.936,68.84,51.256
32.12,64.616,30.784,-48.568,0.6079999999999997,48.2,13.552,186.784,146.89600000000002,89.936,58.84,43.256
28.119999999999997,57.616,27.784,-42.568,-0.39200000000000035,43.2,14.552,170.784,132.89600000000002,79.936,51.84,38.256
25.119999999999997,50.616,24.784,-37.568,-0.39200000000000035,38.2,16.552,156.784,119.896,70.936,45.84,34.256
22.119999999999997,44.616,21.784,-33.568,-1.3920000000000003,34.2,18.552,141.784,106.896,61.93600000000001,38.84,30.256
19.119999999999997,38.616,18.784,-28.567999999999998,-1.3920000000000003,29.200000000000003,20.552,127.78399999999999,94.896,53.93600000000001,32.84,26.256
16.119999999999997,32.616,15.783999999999999,-24.567999999999998,-2.3920000000000003,25.200000000000003,21.552,112.78399999999999,81.896,44.93600000000001,26.840000000000003,22.256
12.119999999999997,25.616,12.783999999999999,-19.567999999999998,-2.3920000000000003,20.200000000000003,23.552,97.78399999999999,68.896,35.93600000000001,20.840000000000003,18.256
9.119999999999997,19.616,9.783999999999999,-15.567999999999998,-2.3920000000000003,16.200000000000003,25.552,83.78399999999999,55.896,27.936000000000007,14.840000000000003,14.256
7.119999999999997,15.616,7.783999999999999,-12.567999999999998,-2.3920000000000003,13.200000000000003,23.552,74.78399999999999,48.896,22.936000000000007,11.840000000000003,12.256
6.119999999999997,12.616,4.783999999999999,-10.567999999999998,-0.39200000000000035,11.200000000000003,21.552,66.78399999999999,42.896,19.936000000000007,9.840000000000003,9.256
4.119999999999997,10.616,2.783999999999999,-8.567999999999998,0.6079999999999997,9.200000000000003,18.552,59.784,37.896,15.936000000000007,7.840000000000003,7.256
3.1199999999999974,7.616,0.7839999999999989,-6.567999999999998,1.6079999999999997,6.200000000000003,15.552,51.784,31.896,12.936000000000007,4.840000000000003,4.256
1.1199999999999974,4.616,-1.216000000000001,-4.567999999999998,3.6079999999999997,4.200000000000003,13.552,43.784,25.896,9.936000000000007,2.8400000000000034,2.2560000000000002
-0.8800000000000026,1.6159999999999997,-4.216000000000001,-2.567999999999998,4.608,2.200000000000003,10.552,36.784,20.896,6.936000000000007,0.8400000000000034,-0.7439999999999998
-1.8800000000000026,-1.3840000000000003,-6.216000000000001,-0.5679999999999978,5.608,0.20000000000000284,7.552,28.784,14.896,2.936000000000007,-1.1599999999999966,-2.7439999999999998
-2.8800000000000026,-3.3840000000000003,-6.216000000000001,1.4320000000000022,4.608,-0.7999999999999972,7.552,24.784,10.896,1.936000000000007,-2.1599999999999966,-3.7439999999999998
-4.880000000000003,-4.384,-4.216000000000001,3.432000000000002,2.6079999999999997,-1.7999999999999972,8.552,22.784,8.896,-0.06399999999999295,-3.1599999999999966,-4.744
-5.880000000000003,-5.384,-3.216000000000001,4.432000000000002,0.6079999999999997,-2.799999999999997,9.552,19.784,5.896000000000001,-1.063999999999993,-4.159999999999997,-5.744
-6.880000000000003,-7.384,-2.216000000000001,6.432000000000002,-2.3920000000000003,-3.799999999999997,10.552,16.784,2.896000000000001,-2.063999999999993,-5.159999999999997,-6.744
-7.880000000000003,-8.384,-0.21600000000000108,8.432000000000002,-4.392,-4.799999999999997,11.552,14.783999999999999,0.8960000000000008,-4.063999999999993,-6.159999999999997,-7.744
-8.880000000000003,-10.384,0.7839999999999989,9.432000000000002,-5.392,-4.799999999999997,12.552,11.783999999999999,-2.103999999999999,-5.063999999999993,-6.159999999999997,-8.744
-9.880000000000003,-11.384,1.783999999999999,11.432000000000002,-7.392,-5.799999999999997,13.552,8.783999999999999,-5.103999999999999,-6.063999999999993,-7.159999999999997,-9.744
-10.880000000000003,-13.384,0.7839999999999989,12.432000000000002,-7.392,-6.799999999999997,11.552,6.783999999999999,-6.103999999999999,-7.063999999999993,-8.159999999999997,-9.744
-11.880000000000003,-15.384,-0.21600000000000108,13.432000000000002,-6.392,-8.799999999999997,7.552,3.783999999999999,-7.103999999999999,-9.063999999999993,-9.159999999999997,-9.744
-12.880000000000003,-16.384,-1.216000000000001,14.432000000000002,-6.392,-9.799999999999997,4.552,1.783999999999999,-8.104,-10.063999999999993,-9.159999999999997,-8.744
-13.880000000000003,-18.384,-3.216000000000001,15.432000000000002,-5.392,-10.799999999999997,1.5519999999999996,-0.21600000000000108,-9.104,-11.063999999999993,-10.159999999999997,-8.744
-14.880000000000003,-20.384,-4.216000000000001,16.432000000000002,-5.392,-12.799999999999997,-2.4480000000000004,-2.216000000000001,-10.104,-13.063999999999993,-10.159999999999997,-7.744
-15.880000000000003,-21.384,-6.216000000000001,16.432000000000002,-4.392,-13.799999999999997,-5.448,-5.216000000000001,-11.104,-14.063999999999993,-11.159999999999997,-7.744
-16.880000000000003,-23.384,-7.216000000000001,17.432000000000002,-4.392,-14.799999999999997,-9.448,-7.216000000000001,-12.104,-15.063999999999993,-11.159999999999997,-7.744
-17.880000000000003,-23.384,-7.216000000000001,18.432000000000002,-5.392,-14.799999999999997,-8.448,-8.216000000000001,-14.104,-16.063999999999993,-12.159999999999997,-7.744
-18.880000000000003,-22.384,-5.216000000000001,19.432000000000002,-5.392,-13.799999999999997,-6.448,-8.216000000000001,-16.104,-16.063999999999993,-12.159999999999997,-7.744
-19.880000000000003,-21.384,-4.216000000000001,19.432000000000002,-6.392,-12.799999999999997,-4.448,-8.216000000000001,-17.104,-17.063999999999993,-12.159999999999997,-7.744
-20.880000000000003,-20.384,-3.216000000000001,20.432000000000002,-8.392,-11.799999999999997,-1.4480000000000004,-8.216000000000001,-19.104,-17.063999999999993,-12.159999999999997,-7.744
-21.880000000000003,-19.384,-1.216000000000001,21.432000000000002,-9.392,-10.799999999999997,0.5519999999999996,-8.216000000000001,-21.104,-18.063999999999993,-12.159999999999997,-7.744
-21.880000000000003,-19.384,-0.21600000000000108,22.432000000000002,-11.392,-10.799999999999997,2.5519999999999996,-8.216000000000001,-22.104,-18.063999999999993,-12.159999999999997,-7.744
-22.880000000000003,-18.384,0.7839999999999989,22.432000000000002,-12.392,-9.799999999999997,4.552,-8.216000000000001,-24.104,-18.063999999999993,-12.159999999999997,-7.744
-22.880000000000003,-16.384,1.783999999999999,22.432000000000002,-12.392,-7.799999999999997,6.552,-7.216000000000001,-24.104,-18.063999999999993,-13.159999999999997,-7.744
-21.880000000000003,-15.384,2.783999999999999,21.432000000000002,-12.392,-6.799999999999997,9.552,-6.216000000000001,-23.104,-18.063999999999993,-13.159999999999997,-7.744
-20.880000000000003,-14.384,3.783999999999999,20.432000000000002,-11.392,-5.799999999999997,11.552,-5.216000000000001,-22.104,-18.063999999999993,-13.159999999999997,-6.744
-19.880000000000003,-12.384,4.783999999999999,19.432000000000002,-11.392,-3.799999999999997,13.552,-4.216000000000001,-21.104,-18.063999999999993,-14.159999999999997,-5.744
-18.880000000000003,-11.384,5.783999999999999,18.432000000000002,-10.392,-2.799999999999997,15.552,-3.216000000000001,-20.104,-18.063999999999993,-14.159999999999997,-5.744
-17.880000000000003,-9.384,5.783999999999999,17.432000000000002,-10.392,-0.7999999999999972,18.552,-2.216000000000001,-19.104,-18.063999999999993,-14.159999999999997,-4.744
-16.880000000000003,-8.384,6.783999999999999,16.432000000000002,-10.392,0.20000000000000284,20.552,-1.216000000000001,-18.104,-18.063999999999993,-14.159999999999997,-4.744
-14.880000000000003,-8.384,6.783999999999999,14.432000000000002,-9.392,0.20000000000000284,18.552,-0.21600000000000108,-17.104,-18.063999999999993,-14.159999999999997,-4.744
-13.880000000000003,-10.384,4.783999999999999,12.432000000000002,-8.392,-0.7999999999999972,14.552,1.783999999999999,-17.104,-19.063999999999993,-13.159999999999997,-4.744
-12.880000000000003,-11.384,3.783999999999999,10.432000000000002,-8.392,-1.7999999999999972,11.552,2.783999999999999,-17.104,-20.063999999999993,-11.159999999999997,-5.744
-10.880000000000003,-12.384,2.783999999999999,8.432000000000002,-7.392,-2.799999999999997,8.552,3.783999999999999,-16.104,-21.063999999999993,-10.159999999999997,-5.744
-9.880000000000003,-13.384,1.783999999999999,6.432000000000002,-6.392,-3.799999999999997,4.552,5.783999999999999,-16.104,-22.063999999999993,-9.159999999999997,-6.744
-7.880000000000003,-14.384,0.7839999999999989,4.432000000000002,-5.392,-4.799999999999997,1.5519999999999996,6.783999999999999,-16.104,-22.063999999999993,-8.159999999999997,-6.744
-6.880000000000003,-15.384,-0.21600000000000108,2.432000000000002,-5.392,-5.799999999999997,-2.4480000000000004,7.783999999999999,-16.104,-23.063999999999993,-7.159999999999997,-6.744
-7.880000000000003,-14.384,0.7839999999999989,3.432000000000002,-6.392,-4.799999999999997,-1.4480000000000004,7.783999999999999,-16.104,-23.063999999999993,-7.159999999999997,-6.744
-9.880000000000003,-13.384,3.783999999999999,4.432000000000002,-8.392,-3.799999999999997,1.5519999999999996,6.783999999999999,-17.104,-23.063999999999993,-8.159999999999997,-5.744
-11.880000000000003,-12.384,6.783999999999999,6.432000000000002,-10.392,-1.7999999999999972,3.5519999999999996,5.783999999999999,-18.104,-23.063999999999993,-8.159999999999997,-4.744
-14.880000000000003,-10.384,8.783999999999999,7.432000000000002,-11.392,-0.7999999999999972,6.552,4.783999999999999,-19.104,-23.063999999999993,-9.159999999999997,-3.7439999999999998
-16.880000000000003,-9.384,11.783999999999999,9.432000000000002,-13.392,1.2000000000000028,8.552,3.783999999999999,-20.104,-23.063999999999993,-10.159999999999997,-2.7439999999999998
-18.880000000000003,-7.384,13.783999999999999,11.432000000000002,-15.392,3.200000000000003,10.552,3.783999999999999,-21.104,-23.063999999999993,-11.159999999999997,-1.7439999999999998
-20.880000000000003,-6.384,16.784,12.432000000000002,-17.392,4.200000000000003,13.552,2.783999999999999,-22.104,-23.063999999999993,-11.159999999999997,-0.7439999999999998
-19.880000000000003,-4.384,16.784,11.432000000000002,-17.392,5.200000000000003,12.552,2.783999999999999,-22.104,-22.063999999999993,-11.159999999999997,-0.7439999999999998
-18.880000000000003,-3.3840000000000003,16.784,10.432000000000002,-16.392,6.200000000000003,9.552,3.783999999999999,-21.104,-20.063999999999993,-11.159999999999997,-1.7439999999999998
-16.880000000000003,-1.3840000000000003,15.783999999999999,8.432000000000002,-15.392,7.200000000000003,7.552,4.783999999999999,-19.104,-19.063999999999993,-10.159999999999997,-2.7439999999999998
-15.880000000000003,0.6159999999999997,15.783999999999999,6.432000000000002,-14.392,8.200000000000003,4.552,5.783999999999999,-18.104,-18.063999999999993,-9.159999999999997,-3.7439999999999998
-13.880000000000003,2.6159999999999997,14.783999999999999,4.432000000000002,-13.392,9.200000000000003,2.5519999999999996,6.783999999999999,-17.104,-16.063999999999993,-9.159999999999997,-4.744
-11.880000000000003,3.6159999999999997,14.783999999999999,3.432000000000002,-12.392,10.200000000000003,0.5519999999999996,6.783999999999999,-16.104,-15.063999999999993,-8.159999999999997,-4.744
-10.880000000000003,5.616,14.783999999999999,1.4320000000000022,-11.392,11.200000000000003,-2.4480000000000004,7.783999999999999,-15.104,-14.063999999999993,-8.159999999999997,-5.744
-9.880000000000003,5.616,13.783999999999999,1.4320000000000022,-10.392,11.200000000000003,-0.4480000000000004,9.783999999999999,-14.104,-13.063999999999993,-7.159999999999997,-5.744
-9.880000000000003,4.616,12.783999999999999,1.4320000000000022,-10.392,9.200000000000003,1.5519999999999996,10.783999999999999,-13.104,-13.063999999999993,-6.159999999999997,-4.744
-8.880000000000003,3.6159999999999997,11.783999999999999,1.4320000000000022,-9.392,8.200000000000003,4.552,11.783999999999999,-12.104,-12.063999999999993,-5.159999999999997,-3.7439999999999998
-8.880000000000003,2.6159999999999997,10.783999999999999,2.432000000000002,-8.392,7.200000000000003,7.552,13.783999999999999,-11.104,-12.063999999999993,-4.159999999999997,-2.7439999999999998
-7.880000000000003,1.6159999999999997,9.783999999999999,2.432000000000002,-8.392,5.200000000000003,10.552,14.783999999999999,-10.104,-11.063999999999993,-3.1599999999999966,-1.7439999999999998
-7.880000000000003,1.6159999999999997,9.783999999999999,2.432000000000002,-7.392,4.200000000000003,13.552,16.784,-9.104,-11.063999999999993,-3.1599999999999966,-1.7439999999999998
-7.880000000000003,0.6159999999999997,8.783999999999999,2.432000000000002,-7.392,3.200000000000003,16.552,17.784,-8.104,-11.063999999999993,-2.1599999999999966,-0.7439999999999998
-6.880000000000003,-1.3840000000000003,6.783999999999999,3.432000000000002,-5.392,1.2000000000000028,16.552,17.784,-7.103999999999999,-10.063999999999993,-1.1599999999999966,0.2560000000000002
-6.880000000000003,-2.3840000000000003,4.783999999999999,4.432000000000002,-5.392,0.20000000000000284,16.552,16.784,-7.103999999999999,-10.063999999999993,-0.1599999999999966,0.2560000000000002
-5.880000000000003,-4.384,1.783999999999999,4.432000000000002,-4.392,-1.7999999999999972,16.552,14.783999999999999,-6.103999999999999,-9.063999999999993,0.8400000000000034,1.2560000000000002
-4.880000000000003,-6.384,-0.21600000000000108,5.432000000000002,-2.3920000000000003,-3.799999999999997,16.552,13.783999999999999,-5.103999999999999,-8.063999999999993,1.8400000000000034,2.2560000000000002
-4.880000000000003,-8.384,-2.216000000000001,6.432000000000002,-1.3920000000000003,-5.799999999999997,16.552,12.783999999999999,-5.103999999999999,-8.063999999999993,2.8400000000000034,2.2560000000000002
-3.8800000000000026,-9.384,-5.216000000000001,7.432000000000002,0.6079999999999997,-6.799999999999997,16.552,11.783999999999999,-4.103999999999999,-7.063999999999993,2.8400000000000034,3.2560000000000002
-3.8800000000000026,-11.384,-7.216000000000001,7.432000000000002,1.6079999999999997,-8.799999999999997,16.552,10.783999999999999,-4.103999999999999,-7.063999999999993,3.8400000000000034,3.2560000000000002
-4.880000000000003,-10.384,-5.216000000000001,7.432000000000002,0.6079999999999997,-6.799999999999997,14.552,8.783999999999999,-5.103999999999999,-8.063999999999993,2.8400000000000034,2.2560000000000002
-5.880000000000003,-8.384,-1.216000000000001,7.432000000000002,-2.3920000000000003,-4.799999999999997,12.552,7.783999999999999,-7.103999999999999,-10.063999999999993,0.8400000000000034,1.2560000000000002
-7.880000000000003,-6.384,1.783999999999999,6.432000000000002,-5.392,-1.7999999999999972,10.552,5.783999999999999,-9.104,-12.063999999999993,-1.1599999999999966,-0.7439999999999998
-9.880000000000003,-3.3840000000000003,5.783999999999999,5.432000000000002,-6.392,1.2000000000000028,8.552,4.783999999999999,-11.104,-13.063999999999993,-4.159999999999997,-2.7439999999999998
-11.880000000000003,-1.3840000000000003,8.783999999999999,5.432000000000002,-9.392,3.200000000000003,6.552,2.783999999999999,-13.104,-15.063999999999993,-6.159999999999997,-4.744
-12.880000000000003,0.6159999999999997,12.783999999999999,4.432000000000002,-11.392,6.200000000000003,4.552,0.7839999999999989,-15.104,-17.063999999999993,-8.159999999999997,-5.744
-14.880000000000003,2.6159999999999997,16.784,4.432000000000002,-14.392,9.200000000000003,2.5519999999999996,-0.21600000000000108,-17.104,-19.063999999999993,-10.159999999999997,-7.744
-14.880000000000003,1.6159999999999997,15.783999999999999,4.432000000000002,-14.392,8.200000000000003,2.5519999999999996,-0.21600000000000108,-17.104,-18.063999999999993,-10.159999999999997,-7.744
-14.880000000000003,-1.3840000000000003,12.783999999999999,6.432000000000002,-12.392,6.200000000000003,3.5519999999999996,-0.21600000000000108,-15.104,-17.063999999999993,-9.159999999999997,-7.744
-13.880000000000003,-3.3840000000000003,10.783999999999999,7.432000000000002,-11.392,4.200000000000003,5.552,0.7839999999999989,-14.104,-15.063999999999993,-7.159999999999997,-6.744
-13.880000000000003,-6.384,7.783999999999999,8.432000000000002,-10.392,1.2000000000000028,6.552,0.7839999999999989,-13.104,-13.063999999999993,-6.159999999999997,-5.744
-12.880000000000003,-8.384,5.783999999999999,10.432000000000002,-8.392,-0.7999999999999972,7.552,1.783999999999999,-11.104,-11.063999999999993,-5.159999999999997,-5.744
-12.880000000000003,-10.384,3.783999999999999,11.432000000000002,-7.392,-2.799999999999997,8.552,1.783999999999999,-10.104,-10.063999999999993,-4.159999999999997,-4.744
-12.880000000000003,-13.384,0.7839999999999989,12.432000000000002,-6.392,-4.799999999999997,9.552,1.783999999999999,-9.104,-8.063999999999993,-3.1599999999999966,-4.744
-11.880000000000003,-13.384,-0.21600000000000108,12.432000000000002,-5.392,-5.799999999999997,8.552,1.783999999999999,-9.104,-8.063999999999993,-3.1599999999999966,-4.744
-10.880000000000003,-13.384,-1.216000000000001,11.432000000000002,-5.392,-5.799999999999997,7.552,1.783999999999999,-10.104,-9.063999999999993,-3.1599999999999966,-4.744
-9.880000000000003,-12.384,-2.216000000000001,11.432000000000002,-4.392,-5.799999999999997,5.552,0.7839999999999989,-10.104,-10.063999999999993,-4.159999999999997,-5.744
-8.880000000000003,-12.384,-3.216000000000001,10.432000000000002,-3.3920000000000003,-6.799999999999997,3.5519999999999996,-0.21600000000000108,-11.104,-11.063999999999993,-4.159999999999997,-5.744
-7.880000000000003,-11.384,-4.216000000000001,9.432000000000002,-2.3920000000000003,-6.799999999999997,1.5519999999999996,-0.21600000000000108,-12.104,-12.063999999999993,-5.159999999999997,-6.744
-6.880000000000003,-11.384,-5.216000000000001,8.432000000000002,-1.3920000000000003,-6.799999999999997,0.5519999999999996,-1.216000000000001,-13.104,-12.063999999999993,-5.159999999999997,-6.744
-5.880000000000003,-11.384,-6.216000000000001,8.432000000000002,-0.39200000000000035,-6.799999999999997,-1.4480000000000004,-1.216000000000001,-13.104,-13.063999999999993,-5.159999999999997,-6.744
-4.880000000000003,-10.384,-6.216000000000001,7.432000000000002,0.6079999999999997,-7.799999999999997,-0.4480000000000004,-2.216000000000001,-14.104,-13.063999999999993,-5.159999999999997,-6.744
-4.880000000000003,-10.384,-5.216000000000001,7.432000000000002,0.6079999999999997,-7.799999999999997,0.5519999999999996,-3.216000000000001,-15.104,-12.063999999999993,-4.159999999999997,-5.744
-4.880000000000003,-10.384,-5.216000000000001,7.432000000000002,1.6079999999999997,-7.799999999999997,1.5519999999999996,-4.216000000000001,-15.104,-12.063999999999993,-2.1599999999999966,-4.744
-3.8800000000000026,-9.384,-4.216000000000001,6.432000000000002,1.6079999999999997,-7.799999999999997,3.5519999999999996,-5.216000000000001,-16.104,-11.063999999999993,-1.1599999999999966,-3.7439999999999998
-3.8800000000000026,-9.384,-3.216000000000001,6.432000000000002,2.6079999999999997,-7.799999999999997,4.552,-6.216000000000001,-17.104,-10.063999999999993,-0.1599999999999966,-2.7439999999999998
-3.8800000000000026,-9.384,-2.216000000000001,6.432000000000002,2.6079999999999997,-7.799999999999997,6.552,-7.216000000000001,-18.104,-9.063999999999993,0.8400000000000034,-1.7439999999999998
-3.8800000000000026,-9.384,-2.216000000000001,6.432000000000002,2.6079999999999997,-7.799999999999997,7.552,-8.216000000000001,-18.104,-9.063999999999993,1.8400000000000034,-0.7439999999999998
-5.880000000000003,-11.384,-2.216000000000001,8.432000000000002,1.6079999999999997,-7.799999999999997,9.552,-10.216000000000001,-20.104,-10.063999999999993,0.8400000000000034,-1.7439999999999998
-8.880000000000003,-14.384,-2.216000000000001,11.432000000000002,-0.39200000000000035,-8.799999999999997,10.552,-11.216000000000001,-23.104,-12.063999999999993,-0.1599999999999966,-2.7439999999999998
-11.880000000000003,-17.384,-2.216000000000001,14.432000000000002,-2.3920000000000003,-10.799999999999997,11.552,-13.216000000000001,-26.104,-14.063999999999993,-1.1599999999999966,-3.7439999999999998
-14.880000000000003,-20.384,-2.216000000000001,17.432000000000002,-4.392,-11.799999999999997,13.552,-14.216000000000001,-29.104,-16.063999999999993,-3.1599999999999966,-5.744
-17.880000000000003,-23.384,-2.216000000000001,20.432000000000002,-5.392,-12.799999999999997,14.552,-16.216,-31.104,-19.063999999999993,-4.159999999999997,-6.744
-20.880000000000003,-26.384,-2.216000000000001,23.432000000000002,-7.392,-13.799999999999997,16.552,-18.216,-34.104,-21.063999999999993,-6.159999999999997,-8.744
-24.880000000000003,-30.384,-2.216000000000001,26.432000000000002,-9.392,-14.799999999999997,17.552,-19.216,-37.104,-23.063999999999993,-7.159999999999997,-9.744
-23.880000000000003,-29.384,-3.216000000000001,25.432000000000002,-8.392,-15.799999999999997,15.552,-19.216,-36.104,-23.063999999999993,-7.159999999999997,-9.744
-21.880000000000003,-28.384,-5.216000000000001,24.432000000000002,-7.392,-16.799999999999997,12.552,-18.216,-35.104,-22.063999999999993,-6.159999999999997,-8.744
-19.880000000000003,-27.384,-6.216000000000001,23.432000000000002,-5.392,-16.799999999999997,9.552,-18.216,-33.104,-22.063999999999993,-6.159999999999997,-7.744
-17.880000000000003,-25.384,-7.216000000000001,21.432000000000002,-5.392,-17.799999999999997,6.552,-17.216,-31.104,-21.063999999999993,-5.159999999999997,-6.744
-14.880000000000003,-24.384,-9.216000000000001,20.432000000000002,-3.3920000000000003,-18.799999999999997,3.5519999999999996,-16.216,-29.104,-20.063999999999993,-4.159999999999997,-5.744
-12.880000000000003,-22.384,-10.216000000000001,18.432000000000002,-2.3920000000000003,-19.799999999999997,0.5519999999999996,-15.216000000000001,-28.104,-19.063999999999993,-3.1599999999999966,-4.744
-10.880000000000003,-21.384,-11.216000000000001,17.432000000000002,-0.39200000000000035,-19.799999999999997,-2.4480000000000004,-15.216000000000001,-26.104,-19.063999999999993,-3.1599999999999966,-3.7439999999999998
-10.880000000000003,-21.384,-11.216000000000001,17.432000000000002,-0.39200000000000035,-19.799999999999997,-0.4480000000000004,-15.216000000000001,-26.104,-19.063999999999993,-3.1599999999999966,-3.7439999999999998
-10.880000000000003,-21.384,-11.216000000000001,17.432000000000002,-0.39200000000000035,-19.799999999999997,1.5519999999999996,-16.216,-27.104,-20.063999999999993,-3.1599999999999966,-3.7439999999999998
-10.880000000000003,-22.384,-11.216000000000001,17.432000000000002,-0.39200000000000035,-18.799999999999997,4.552,-17.216,-29.104,-21.063999999999993,-4.159999999999997,-4.744
-11.880000000000003,-23.384,-11.216000000000001,17.432000000000002,-0.39200000000000035,-17.799999999999997,7.552,-18.216,-30.104,-22.063999999999993,-4.159999999999997,-5.744
-11.880000000000003,-23.384,-11.216000000000001,17.432000000000002,-0.39200000000000035,-17.799999999999997,10.552,-19.216,-31.104,-23.063999999999993,-5.159999999999997,-5.744
-11.880000000000003,-24.384,-11.216000000000001,17.432000000000002,-0.39200000000000035,-16.799999999999997,13.552,-19.216,-32.104,-23.063999999999993,-5.159999999999997,-6.744
-11.880000000000003,-24.384,-11.216000000000001,17.432000000000002,-0.39200000000000035,-16.799999999999997,16.552,-20.216,-33.104,-24.063999999999993,-5.159999999999997,-6.744
-13.880000000000003,-24.384,-10.216000000000001,17.432000000000002,-2.3920000000000003,-15.799999999999997,15.552,-21.216,-34.104,-25.063999999999993,-7.159999999999997,-7.744
-14.880000000000003,-24.384,-9.216000000000001,18.432000000000002,-3.3920000000000003,-14.799999999999997,14.552,-22.216,-35.104,-25.063999999999993,-8.159999999999997,-9.744
-15.880000000000003,-24.384,-7.216000000000001,19.432000000000002,-4.392,-14.799999999999997,13.552,-24.216,-36.104,-25.063999999999993,-9.159999999999997,-10.744
-17.880000000000003,-23.384,-6.216000000000001,20.432000000000002,-5.392,-13.799999999999997,11.552,-25.216,-37.104,-25.063999999999993,-11.159999999999997,-11.744
-18.880000000000003,-23.384,-5.216000000000001,21.432000000000002,-6.392,-12.799999999999997,10.552,-26.216,-38.104,-25.063999999999993,-12.159999999999997,-13.744
-20.880000000000003,-23.384,-4.216000000000001,21.432000000000002,-8.392,-11.799999999999997,8.552,-27.216,-38.104,-25.063999999999993,-14.159999999999997,-14.744
-21.880000000000003,-23.384,-3.216000000000001,22.432000000000002,-9.392,-11.799999999999997,7.552,-28.216,-39.104,-25.063999999999993,-15.159999999999997,-15.744
-21.880000000000003,-22.384,-2.216000000000001,22.432000000000002,-9.392,-10.799999999999997,8.552,-28.216,-39.104,-25.063999999999993,-15.159999999999997,-15.744
-20.880000000000003,-21.384,-2.216000000000001,21.432000000000002,-9.392,-10.799999999999997,9.552,-27.216,-38.104,-25.063999999999993,-14.159999999999997,-15.744
-18.880000000000003,-20.384,-1.216000000000001,20.432000000000002,-8.392,-9.799999999999997,10.552,-25.216,-36.104,-26.063999999999993,-13.159999999999997,-14.744
-17.880000000000003,-19.384,-1.216000000000001,19.432000000000002,-8.392,-8.799999999999997,12.552,-24.216,-35.104,-27.063999999999993,-12.159999999999997,-14.744
-16.880000000000003,-18.384,-0.21600000000000108,18.432000000000002,-7.392,-8.799999999999997,13.552,-23.216,-34.104,-27.063999999999993,-11.159999999999997,-13.744
-15.880000000000003,-17.384,-0.21600000000000108,18.432000000000002,-7.392,-7.799999999999997,15.552,-22.216,-33.104,-28.063999999999993,-10.159999999999997,-13.744
-14.880000000000003,-16.384,-0.21600000000000108,17.432000000000002,-7.392,-7.799999999999997,16.552,-21.216,-32.104,-28.063999999999993,-9.159999999999997,-13.744
-14.880000000000003,-17.384,-2.216000000000001,17.432000000000002,-5.392,-8.799999999999997,16.552,-21.216,-31.104,-27.063999999999993,-8.159999999999997,-12.744
-15.880000000000003,-20.384,-4.216000000000001,19.432000000000002,-4.392,-11.799999999999997,16.552,-21.216,-31.104,-26.063999999999993,-8.159999999999997,-11.744
-17.880000000000003,-22.384,-7.216000000000001,20.432000000000002,-2.3920000000000003,-13.799999999999997,15.552,-21.216,-31.104,-24.063999999999993,-7.159999999999997,-10.744
-18.880000000000003,-25.384,-10.216000000000001,21.432000000000002,-1.3920000000000003,-16.799999999999997,15.552,-21.216,-30.104,-22.063999999999993,-7.159999999999997,-9.744
-19.880000000000003,-28.384,-13.216000000000001,23.432000000000002,0.6079999999999997,-18.799999999999997,14.552,-21.216,-30.104,-20.063999999999993,-6.159999999999997,-8.744
-20.880000000000003,-30.384,-16.216,24.432000000000002,2.6079999999999997,-20.799999999999997,14.552,-21.216,-30.104,-19.063999999999993,-6.159999999999997,-8.744
-21.880000000000003,-33.384,-19.216,25.432000000000002,4.608,-23.799999999999997,14.552,-21.216,-30.104,-17.063999999999993,-6.159999999999997,-7.744
-21.880000000000003,-33.384,-18.216,25.432000000000002,3.6079999999999997,-23.799999999999997,13.552,-22.216,-31.104,-17.063999999999993,-6.159999999999997,-7.744
-21.880000000000003,-32.384,-16.216,25.432000000000002,1.6079999999999997,-22.799999999999997,11.552,-23.216,-32.104,-18.063999999999993,-7.159999999999997,-8.744
-21.880000000000003,-30.384,-14.216000000000001,24.432000000000002,-0.39200000000000035,-21.799999999999997,10.552,-25.216,-34.104,-20.063999999999993,-8.159999999999997,-10.744
-21.880000000000003,-29.384,-12.216000000000001,24.432000000000002,-2.3920000000000003,-20.799999999999997,9.552,-26.216,-36.104,-21.063999999999993,-9.159999999999997,-11.744
-21.880000000000003,-28.384,-9.216000000000001,23.432000000000002,-4.392,-19.799999999999997,7.552,-28.216,-38.104,-22.063999999999993,-10.159999999999997,-12.744
-21.880000000000003,-27.384,-7.216000000000001,23.432000000000002,-5.392,-18.799999999999997,6.552,-29.216,-39.104,-23.063999999999993,-11.159999999999997,-13.744
-21.880000000000003,-26.384,-5.216000000000001,23.432000000000002,-7.392,-17.799999999999997,5.552,-31.216,-41.104,-24.063999999999993,-12.159999999999997,-14.744
-19.880000000000003,-24.384,-5.216000000000001,21.432000000000002,-7.392,-16.799999999999997,5.552,-30.216,-40.104,-24.063999999999993,-12.159999999999997,-14.744
-17.880000000000003,-22.384,-6.216000000000001,19.432000000000002,-5.392,-14.799999999999997,7.552,-29.216,-38.104,-24.063999999999993,-11.159999999999997,-14.744
-15.880000000000003,-20.384,-7.216000000000001,17.432000000000002,-5.392,-13.799999999999997,8.552,-27.216,-35.104,-23.063999999999993,-10.159999999999997,-13.744
-13.880000000000003,-18.384,-8.216000000000001,16.432000000000002,-4.392,-12.799999999999997,9.552,-26.216,-33.104,-22.063999999999993,-9.159999999999997,-13.744
-10.880000000000003,-16.384,-9.216000000000001,14.432000000000002,-2.3920000000000003,-10.799999999999997,11.552,-24.216,-31.104,-22.063999999999993,-8.159999999999997,-12.744
-8.880000000000003,-14.384,-9.216000000000001,12.432000000000002,-1.3920000000000003,-9.799999999999997,12.552,-23.216,-28.104,-21.063999999999993,-8.159999999999997,-12.744
-6.880000000000003,-12.384,-10.216000000000001,10.432000000000002,-0.39200000000000035,-8.799999999999997,13.552,-21.216,-26.104,-21.063999999999993,-7.159999999999997,-12.744
-6.880000000000003,-9.384,-7.216000000000001,8.432000000000002,-1.3920000000000003,-5.799999999999997,16.552,-18.216,-24.104,-19.063999999999993,-6.159999999999997,-11.744
-7.880000000000003,-5.384,-3.216000000000001,6.432000000000002,-2.3920000000000003,-1.7999999999999972,18.552,-16.216,-22.104,-17.063999999999993,-6.159999999999997,-9.744
-9.880000000000003,-2.3840000000000003,0.7839999999999989,4.432000000000002,-4.392,1.2000000000000028,21.552,-13.216000000000001,-20.104,-15.063999999999993,-5.159999999999997,-8.744
-10.880000000000003,1.6159999999999997,4.783999999999999,3.432000000000002,-5.392,5.200000000000003,24.552,-10.216000000000001,-18.104,-14.063999999999993,-4.159999999999997,-7.744
-11.880000000000003,4.616,9.783999999999999,1.4320000000000022,-6.392,8.200000000000003,27.552,-7.216000000000001,-16.104,-12.063999999999993,-4.159999999999997,-5.744
-12.880000000000003,8.616,13.783999999999999,-0.5679999999999978,-7.392,12.200000000000003,30.552,-4.216000000000001,-14.104,-10.063999999999993,-3.1599999999999966,-4.744
-13.880000000000003,11.616,17.784,-2.567999999999998,-9.392,15.200000000000003,33.552,-1.216000000000001,-12.104,-8.063999999999993,-3.1599999999999966,-3.7439999999999998
-13.880000000000003,15.616,21.784,-4.567999999999998,-11.392,19.200000000000003,40.552,1.783999999999999,-10.104,-5.063999999999993,-1.1599999999999966,-1.7439999999999998
-12.880000000000003,18.616,25.784,-6.567999999999998,-14.392,22.200000000000003,48.552,4.783999999999999,-8.104,-2.063999999999993,1.8400000000000034,1.2560000000000002
-11.880000000000003,21.616,29.784,-8.567999999999998,-17.392,26.200000000000003,57.552,7.783999999999999,-5.103999999999999,0.936000000000007,3.8400000000000034,3.2560000000000002
-10.880000000000003,25.616,32.784,-10.567999999999998,-20.392,29.200000000000003,66.55199999999999,10.783999999999999,-3.103999999999999,3.936000000000007,6.840000000000003,5.256
-9.880000000000003,28.616,36.784,-12.567999999999998,-22.392,33.2,75.55199999999999,13.783999999999999,-1.1039999999999992,6.936000000000007,9.840000000000003,8.256
-9.880000000000003,31.616,40.784,-14.567999999999998,-25.392,36.2,84.55199999999999,16.784,1.8960000000000008,9.936000000000007,11.840000000000003,10.256
-8.880000000000003,35.616,43.784,-16.567999999999998,-28.392,39.2,93.55199999999999,20.784,3.896000000000001,12.936000000000007,14.840000000000003,13.256
-3.8800000000000026,40.616,46.784,-20.567999999999998,-27.392,43.2,92.55199999999999,22.784,6.896000000000001,15.936000000000007,16.840000000000003,15.256
2.1199999999999974,46.616,48.784,-26.567999999999998,-24.392,46.2,87.55199999999999,24.784,9.896,19.936000000000007,19.840000000000003,18.256
8.119999999999997,52.616,50.784,-32.568,-21.392,50.2,82.55199999999999,27.784,13.896,22.936000000000007,22.840000000000003,21.256
14.119999999999997,59.616,52.784,-37.568,-18.392,53.2,78.55199999999999,29.784,16.896,26.936000000000007,25.840000000000003,24.256
20.119999999999997,65.616,54.784,-43.568,-16.392,57.2,73.55199999999999,31.784,20.896,29.936000000000007,28.840000000000003,26.256
26.119999999999997,71.616,56.784,-48.568,-13.392,60.2,68.55199999999999,34.784,23.896,33.93600000000001,31.840000000000003,29.256
32.12,78.616,58.784,-54.568,-10.392,63.2,63.552,36.784,26.896,36.93600000000001,34.84,32.256
33.12,77.616,55.784,-54.568,-8.392,62.2,54.552,33.784,26.896,36.93600000000001,35.84,33.256
32.12,74.616,51.784,-53.568,-6.392,59.2,45.552,27.784,24.896,35.93600000000001,36.84,35.256
31.119999999999997,71.616,47.784,-52.568,-5.392,56.2,34.552,21.784,22.896,33.93600000000001,38.84,36.256
30.119999999999997,67.616,42.784,-50.568,-4.392,53.2,24.552,15.783999999999999,21.896,31.936000000000007,39.84,38.256
29.119999999999997,64.616,38.784,-49.568,-2.3920000000000003,50.2,14.552,10.783999999999999,19.896,29.936000000000007,40.84,39.256
28.119999999999997,61.616,33.784,-47.568,-0.39200000000000035,47.2,3.5519999999999996,4.783999999999999,17.896,28.936000000000007,41.84,41.256
27.119999999999997,57.616,29.784,-46.568,1.6079999999999997,43.2,-6.448,-1.216000000000001,15.896,26.936000000000007,42.84,42.256
29.119999999999997,53.616,22.784,-44.568,5.608,38.2,-12.448,-4.216000000000001,13.896,25.936000000000007,42.84,42.256
33.12,48.616,14.783999999999999,-43.568,10.608,31.200000000000003,-15.448,-5.216000000000001,10.896,24.936000000000007,41.84,41.256
36.12,43.616,6.783999999999999,-41.568,16.608,25.200000000000003,-18.448,-7.216000000000001,7.896000000000001,22.936000000000007,40.84,40.256
40.12,38.616,-1.216000000000001,-39.568,21.608,18.200000000000003,-22.448,-9.216000000000001,4.896000000000001,21.936000000000007,39.84,39.256
43.12,32.616,-9.216000000000001,-37.568,26.608,12.200000000000003,-25.448,-11.216000000000001,1.8960000000000008,20.936000000000007,38.84,38.256
47.12,27.616,-17.216,-36.568,32.608,5.200000000000003,-28.448,-12.216000000000001,-1.1039999999999992,19.936000000000007,37.84,38.256
50.12,22.616,-25.216,-34.568,37.608,-0.7999999999999972,-31.448,-14.216000000000001,-4.103999999999999,18.936000000000007,36.84,37.256
47.12,17.616,-26.216,-29.567999999999998,36.608,-4.799999999999997,-29.448,-16.216,-7.103999999999999,15.936000000000007,32.84,33.256
40.12,11.616,-23.216,-24.567999999999998,32.608,-5.799999999999997,-23.448,-18.216,-10.104,12.936000000000007,28.840000000000003,28.256
33.12,6.616,-21.216,-18.567999999999998,28.608,-7.799999999999997,-18.448,-20.216,-13.104,9.936000000000007,23.840000000000003,23.256
26.119999999999997,0.6159999999999997,-19.216,-12.567999999999998,24.608,-9.799999999999997,-12.448,-22.216,-16.104,5.936000000000007,19.840000000000003,19.256
19.119999999999997,-5.384,-16.216,-6.567999999999998,20.608,-11.799999999999997,-6.448,-24.216,-19.104,2.936000000000007,14.840000000000003,14.256
12.119999999999997,-10.384,-14.216000000000001,-0.5679999999999978,17.608,-12.799999999999997,-1.4480000000000004,-26.216,-22.104,-0.06399999999999295,9.840000000000003,9.256
5.119999999999997,-16.384,-11.216000000000001,5.432000000000002,13.608,-14.799999999999997,4.552,-28.216,-25.104,-3.063999999999993,5.840000000000003,4.256
-1.8800000000000026,-23.384,-13.216000000000001,11.432000000000002,10.608,-18.799999999999997,7.552,-31.216,-29.104,-8.063999999999993,1.8400000000000034,0.2560000000000002
-7.880000000000003,-31.384,-16.216,19.432000000000002,7.608,-23.799999999999997,10.552,-34.216,-33.104,-12.063999999999993,-2.1599999999999966,-3.7439999999999998
-13.880000000000003,-39.384,-19.216,26.432000000000002,5.608,-28.799999999999997,12.552,-37.216,-38.104,-17.063999999999993,-5.159999999999997,-6.744
-19.880000000000003,-48.384,-22.216,33.432,2.6079999999999997,-33.8,15.552,-40.216,-43.104,-21.063999999999993,-9.159999999999997,-10.744
-25.880000000000003,-56.384,-25.216,40.432,-0.39200000000000035,-38.8,18.552,-43.216,-48.104,-26.063999999999993,-13.159999999999997,-14.744
-31.880000000000003,-64.384,-28.216,47.432,-2.3920000000000003,-43.8,20.552,-46.216,-52.104,-31.063999999999993,-17.159999999999997,-18.744
-38.88,-72.384,-31.216,54.432,-5.392,-48.8,23.552,-49.216,-57.104,-35.06399999999999,-20.159999999999997,-21.744
-39.88,-74.384,-32.216,56.432,-5.392,-50.8,21.552,-51.216,-61.104,-38.06399999999999,-23.159999999999997,-24.744
-38.88,-72.384,-34.216,54.432,-4.392,-51.8,17.552,-55.216,-64.104,-40.06399999999999,-24.159999999999997,-26.744
-37.88,-71.384,-35.216,53.432,-3.3920000000000003,-52.8,12.552,-58.216,-67.104,-42.06399999999999,-26.159999999999997,-27.744
-36.88,-70.384,-36.216,52.432,-2.3920000000000003,-53.8,8.552,-62.216,-70.104,-44.06399999999999,-28.159999999999997,-29.744
-35.88,-68.384,-38.216,50.432,-1.3920000000000003,-54.8,4.552,-65.21600000000001,-73.104,-47.06399999999999,-30.159999999999997,-31.744
-35.88,-67.384,-39.216,49.432,-0.39200000000000035,-54.8,0.5519999999999996,-69.21600000000001,-76.104,-49.06399999999999,-31.159999999999997,-33.744
-34.88,-66.384,-40.216,48.432,0.6079999999999997,-55.8,-3.4480000000000004,-72.21600000000001,-79.104,-51.06399999999999,-33.16,-35.744
-32.88,-66.384,-40.216,48.432,1.6079999999999997,-55.8,-4.448,-73.21600000000001,-79.104,-52.06399999999999,-34.16,-34.744
-31.880000000000003,-67.384,-40.216,49.432,1.6079999999999997,-55.8,-3.4480000000000004,-73.21600000000001,-79.104,-53.06399999999999,-34.16,-32.744
-29.880000000000003,-69.384,-39.216,49.432,2.6079999999999997,-54.8,-3.4480000000000004,-72.21600000000001,-78.104,-54.06399999999999,-34.16,-31.744
-27.880000000000003,-70.384,-39.216,50.432,3.6079999999999997,-54.8,-2.4480000000000004,-71.21600000000001,-77.104,-55.06399999999999,-35.16,-29.744
-25.880000000000003,-71.384,-38.216,51.432,3.6079999999999997,-53.8,-1.4480000000000004,-71.21600000000001,-77.104,-56.06399999999999,-35.16,-27.744
-24.880000000000003,-72.384,-38.216,52.432,4.608,-53.8,-0.4480000000000004,-70.21600000000001,-76.104,-56.06399999999999,-35.16,-25.744
-22.880000000000003,-73.384,-38.216,52.432,4.608,-53.8,-0.4480000000000004,-70.21600000000001,-76.104,-57.06399999999999,-35.16,-23.744
-23.880000000000003,-73.384,-39.216,53.432,5.608,-53.8,-1.4480000000000004,-69.21600000000001,-75.104,-57.06399999999999,-36.16,-23.744
-24.880000000000003,-73.384,-40.216,53.432,6.608,-54.8,-3.4480000000000004,-68.21600000000001,-74.104,-55.06399999999999,-36.16,-25.744
-26.880000000000003,-73.384,-42.216,53.432,8.608,-55.8,-4.448,-67.21600000000001,-72.104,-54.06399999999999,-37.16,-26.744
-28.880000000000003,-72.384,-43.216,53.432,9.608,-56.8,-6.448,-66.21600000000001,-71.104,-53.06399999999999,-37.16,-27.744
-30.880000000000003,-72.384,-45.216,53.432,10.608,-57.8,-8.448,-65.21600000000001,-70.104,-51.06399999999999,-38.16,-29.744
-31.880000000000003,-72.384,-46.216,53.432,11.608,-58.8,-10.448,-64.21600000000001,-69.104,-50.06399999999999,-38.16,-30.744
-33.88,-72.384,-48.216,53.432,12.608,-59.8,-12.448,-63.216,-68.104,-49.06399999999999,-38.16,-31.744
-34.88,-71.384,-46.216,52.432,11.608,-58.8,-14.448,-63.216,-68.104,-49.06399999999999,-37.16,-31.744
-34.88,-69.384,-43.216,52.432,8.608,-55.8,-16.448,-64.21600000000001,-69.104,-50.06399999999999,-36.16,-31.744
-35.88,-68.384,-41.216,51.432,5.608,-53.8,-18.448,-65.21600000000001,-70.104,-51.06399999999999,-34.16,-31.744
-35.88,-66.384,-37.216,51.432,2.6079999999999997,-50.8,-20.448,-66.21600000000001,-71.104,-52.06399999999999,-33.16,-30.744
-36.88,-65.384,-34.216,50.432,-0.39200000000000035,-47.8,-23.448,-67.21600000000001,-72.104,-53.06399999999999,-31.159999999999997,-30.744
-36.88,-63.384,-31.216,50.432,-3.3920000000000003,-45.8,-25.448,-68.21600000000001,-72.104,-54.06399999999999,-30.159999999999997,-30.744
-36.88,-62.384,-28.216,50.432,-5.392,-42.8,-27.448,-69.21600000000001,-73.104,-55.06399999999999,-28.159999999999997,-30.744
-35.88,-61.384,-26.216,48.432,-5.392,-41.8,-25.448,-68.21600000000001,-73.104,-55.06399999999999,-28.159999999999997,-29.744
-34.88,-59.384,-26.216,47.432,-5.392,-41.8,-21.448,-66.21600000000001,-72.104,-55.06399999999999,-28.159999999999997,-27.744
-32.88,-58.384,-26.216,45.432,-4.392,-40.8,-17.448,-64.21600000000001,-71.104,-54.06399999999999,-29.159999999999997,-26.744
-31.880000000000003,-57.384,-25.216,44.432,-3.3920000000000003,-39.8,-13.448,-62.216,-70.104,-53.06399999999999,-30.159999999999997,-24.744
-29.880000000000003,-55.384,-25.216,42.432,-2.3920000000000003,-39.8,-9.448,-60.216,-69.104,-53.06399999999999,-30.159999999999997,-23.744
-28.880000000000003,-54.384,-25.216,41.432,-1.3920000000000003,-38.8,-5.448,-58.216,-69.104,-52.06399999999999,-31.159999999999997,-21.744
-26.880000000000003,-53.384,-25.216,39.432,-0.39200000000000035,-38.8,-1.4480000000000004,-56.216,-68.104,-52.06399999999999,-31.159999999999997,-20.744
-30.880000000000003,-65.384,-33.216,47.432,2.6079999999999997,-48.8,17.552,-33.216,-75.104,-66.064,-46.16,-32.744
-36.88,-83.384,-45.216,59.432,5.608,-64.8,43.552,2.783999999999999,-87.104,-87.064,-66.16,-52.744
-42.88,-100.384,-58.216,71.432,9.608,-78.8,68.55199999999999,37.784,-99.104,-107.064,-87.16,-71.744
-48.88,-119.384,-71.21600000000001,83.432,12.608,-94.8,94.55199999999999,73.78399999999999,-110.104,-128.064,-107.16,-89.744
-53.88,-137.38400000000001,-84.21600000000001,95.432,16.608,-109.8,121.55199999999999,108.78399999999999,-121.104,-149.064,-128.16,-109.744
-59.88,-155.38400000000001,-96.21600000000001,107.432,19.608,-125.8,147.552,143.784,-133.10399999999998,-170.064,-149.16,-128.744
-65.88,-173.38400000000001,-109.21600000000001,119.432,22.608,-140.8,173.552,179.784,-145.10399999999998,-191.064,-170.16,-147.744
-53.88,-143.38400000000001,-91.21600000000001,98.432,20.608,-116.8,188.552,252.784,-85.104,-154.064,-147.16,-130.744
-32.88,-90.384,-58.216,61.432,14.608,-72.8,198.552,344.784,11.896,-88.064,-104.16,-96.744
-11.880000000000003,-35.384,-26.216,23.432000000000002,8.608,-29.799999999999997,208.552,436.784,107.896,-23.063999999999993,-60.16,-62.744
10.119999999999997,18.616,6.783999999999999,-14.567999999999998,2.6079999999999997,13.200000000000003,218.552,528.784,204.89600000000002,42.93600000000001,-16.159999999999997,-28.744
32.12,73.616,39.784,-52.568,-3.3920000000000003,57.2,228.552,621.784,300.896,107.936,28.840000000000003,6.256
54.12,127.616,72.78399999999999,-90.568,-8.392,101.2,238.552,713.784,397.896,173.936,72.84,40.256
75.12,181.61599999999999,105.78399999999999,-128.56799999999998,-14.392,145.2,248.552,805.784,493.896,239.936,116.84,75.256
137.12,294.616,145.784,-215.56799999999998,-6.392,228.2,191.552,803.784,661.896,396.93600000000004,216.84,154.256
218.12,435.616,188.784,-326.568,7.608,330.2,100.55199999999999,754.784,866.896,599.936,344.84000000000003,256.256
